Time Pressure difference Time.1 Pressure.1 difference.1
(hr) (psi) (hr) (psi)
0.000200000000020850166 0.32017447713911196 0.000200000000020850166 0.25781959910990515
0.000399999999999067768 0.61424466530220001 0.000399999999999067768 0.59069005356689674
0.000600000000019917934 0.89322283555065418 0.000600000000019917934 0.82986359736625015
0.000799999999998135536 1.16090425381243834 0.000799999999998135536 1.05917744745623765
0.001007140329434719206 1.42850443490451262 0.001007140329434719206 1.28740445579500151
0.001267914553977789183 1.75376975732986273 0.001267914553977789183 1.56195759865394646
0.001596209851982166583 2.14780308886678784 0.001596209851982166583 1.88850747998658153
0.002009509145224797066 2.62344528550565315 0.002009509145224797066 2.27496456991186324
0.002529822128153114136 3.19544130330350740 0.002529822128153114136 2.72994731579851724
0.003184857364431081805 3.88059973662413737 0.003184857364431081805 3.26274796444082993
0.004009497869034817086 4.69794301814602466 0.004009497869034817086 3.88329060194338638
0.005047658755856332391 5.66884738797280541 0.005047658755856332391 4.60209153040610186
0.006354625877790454069 6.81717449838885869 0.006354625877790454069 5.43023570037994130
0.008000000000009777068 8.16940003762945999 0.008000000000009777068 6.37938559609770461
0.010071403294361402914 9.75474873206594140 0.010071403294361402914 7.46183982603153506
0.012679145539692626699 11.60534897454208725 0.012679145539692626699 8.69065592390568575
0.015962098519750611558 13.75642300269430685 0.015962098519750611558 10.07984228903401558
0.020095091452091651263 16.24652798320909142 0.020095091452091651263 11.64460782392069760
0.025298221281360611101 19.11785843008475183 0.025298221281360611101 13.40165227197219444
0.031848573644296607199 22.41661716739379528 0.031848573644296607199 15.36952290899511375
0.040094978690191851456 26.19347662571648527 0.040094978690191851456 17.56914961305328404
0.050476587558435426217 30.50418861039391416 0.050476587558435426217 20.02465101715774765
0.063546258777947173257 35.41040605886401238 0.063546258777947173257 22.76413994531578666
0.080000000000012505552 40.98064845910754173 0.080000000000012505552 25.81957336112152745
0.100714032943542974863 47.29103328465813405 0.100714032943542974863 29.22430715222320785
0.126791455396883634421 54.42508688088523883 0.126791455396883634421 33.00763424462012097
0.159620985197506115583 62.47192411166693660 0.159620985197506115583 37.18743223617846638
0.200950914520774404082 71.52262826679447016 0.200950914520774404082 41.76384889627110653
0.252982212813464002465 81.66546771636157587 0.252982212813464002465 46.71771151635174846
0.318485736442809752589 92.98147384446529884 0.318485736442809752589 52.01251849402866867
0.400949786901833249431 105.54048774614729211 0.400949786901833249431 57.60705416914078825
0.504765875584169521062 119.40241749539367788 0.504765875584169521062 63.46277918377330707
0.635462587779443310865 134.61652636917892778 0.635462587779443310865 69.55310837723322948
0.800000000000011368684 151.22672134203457972 0.800000000000011368684 75.87582165818857050
1.007140329435344483500 169.27621710694637613 1.007140329435344483500 82.46849961693186515
1.267914553968907398485 188.81939130407909033 1.267914553968907398485 89.34838384907838815
1.596209851975117999245 209.89848907266693345 1.596209851975117999245 96.63355301875698444
2.009509145207687197399 232.60949172952922481 2.009509145207687197399 104.38811295879663987
2.529822128134725289783 257.00793016667205393 2.529822128134725289783 112.74729199795689283
3.184857364427983839050 283.22867883205395856 3.184857364427983839050 121.89503371690796030
4.009497869018204596614 311.38092796077802404 4.009497869018204596614 131.89983492555907674
5.009497869018190385759 340.56307919413762875 5.009497869018190385759 142.46127495747120406
6.009497869018190385759 365.91273330672828479 6.009497869018190385759 151.74032288415020275
7.009497869018204596614 388.42700987671474877 7.009497869018204596614 160.01600889099094616
8.009497869018190385759 408.73087097309598903 8.009497869018190385759 167.44340729238817289
9.009497869018204596614 427.24615235281140713 9.009497869018204596614 174.15933757799808745
10.009497869018190385759 444.27427478976341035 10.009497869018190385759 180.25194535447636213
11.009497869018190385759 460.04015764689586376 11.009497869018190385759 185.75256368797440132
12.009497869018204596614 474.71756804324451195 12.009497869018204596614 190.78238668670016409
13.009497869018190385759 488.44375258950469743 13.009497869018190385759 195.39339961019211955
14.009497869018204596614 501.33100772754437457 14.009497869018204596614 199.62377979231933978
15.009497869018190385759 513.46992686463659084 15.009497869018190385759 203.51883927766701277
16.009497869018190385759 524.93567737346108970 16.009497869018190385759 207.11798930485608139
17.009497869018204596614 535.79405083661606568 17.009497869018204596614 210.45794434782166604
18.009497869018190385759 546.10199823037623901 18.009497869018190385759 213.57661475635399029
19.009497869018204596614 555.90792773939278959 19.009497869018204596614 216.48373470963736054
20.009497869018190385759 565.25552242357343857 20.009497869018190385759 219.19375500207891605
21.009497869018190385759 574.18057140453345255 21.009497869018190385759 221.72008131456965430
22.009497869018204596614 582.71369985245360112 22.009497869018204596614 224.08472065349528179
23.009497869018190385759 590.88290628151924011 23.009497869018190385759 226.29578505164687385
24.009497869018204596614 598.71407205972877819 24.009497869018204596614 228.37676102946710444
25.009497869018204596614 606.23146341071458210 25.009497869018204596614 230.33858963414942878
26.009497869018190385759 613.45643996771616457 26.009497869018190385759 232.19277316065736727
27.009497869018204596614 620.40848548869314527 27.009497869018204596614 233.95186989927631771
28.009497869018190385759 627.10452178965181247 28.009497869018190385759 235.62003997121192356
29.009497869018190385759 633.55972702841290811 29.009497869018190385759 237.19029301877915827
30.009497869018190385759 639.78818640013992081 30.009497869018190385759 238.69426458419025039
31.009497869018218807469 645.80280249816939886 31.009497869018218807469 240.12117370740375577
32.009497869018190385759 651.61545983258861270 32.009497869018190385759 241.47680574517394803
33.009497869018190385759 657.23715736114820629 33.009497869018190385759 242.75915670025926829
34.009497869018218807469 662.67847065930891404 34.009497869018218807469 243.99487783607162328
35.009497869018190385759 667.94882159047790537 35.009497869018190385759 245.17265586438665537
36.009497869018190385759 673.05691985005034894 36.009497869018190385759 246.30783684941269485
37.009497869018190385759 678.01083359602444034 37.009497869018190385759 247.39939816236400816
38.009497869018218807469 682.81824673543633253 38.009497869018218807469 248.45217499270779626
39.009497869018190385759 687.48618930118834669 39.009497869018190385759 249.47351579557559376
40.009497869018190385759 692.02124450592577887 40.009497869018190385759 250.46022620932657787
41.009497869018218807469 696.42973436359852712 41.009497869018218807469 251.41147215933520442
42.009497869018190385759 700.71744707584161915 42.009497869018190385759 252.32381352821883524
43.009497869018190385759 704.88982272564442155 43.009497869018190385759 253.21624889272050041
44.009497869018218807469 708.95212266702083070 44.009497869018218807469 254.05833210925010235
46.009497869018190385759 716.76611430681293768 46.009497869018190385759 255.67548717879404307
48.009497869018218807469 724.19311134780991779 48.009497869018218807469 257.17540630741598306
50.009497869018190385759 731.25999952265920001 50.009497869018190385759 258.51130026235512105
52.009497869018190385759 737.99350132331608165 52.009497869018190385759 259.72331689086786355
54.009497869018218807469 744.41898859104662733 54.009497869018218807469 260.82865964563052330
56.009497869018190385759 750.55655902018645520 56.009497869018190385759 261.83895832163875639
58.009497869018218807469 756.42372951479671883 58.009497869018218807469 262.79424929715509052
60.009497869018190385759 762.03778324138340849 60.009497869018190385759 263.75939567226771487
62.009497869018190385759 767.41327782484052022 62.009497869018190385759 264.70205720497608581
64.009497869018218807469 772.56540278660213517 64.009497869018218807469 265.62206520267449150
66.009497869018190385759 777.51444829886202115 66.009497869018190385759 266.61181334432473022
68.009497869018190385759 782.27794463916870882 68.009497869018190385759 267.62192225167433435
70.009497869018190385759 786.86647968440649947 70.009497869018190385759 268.49100721033693162
72.009497869018190385759 791.29105377468590632 72.009497869018190385759 269.20440814760877402
74.009497869018218807469 795.56185507707618854 74.009497869018218807469 269.87878135904946930
76.009497869018190385759 799.68707395556441497 76.009497869018190385759 270.51604237755680060
78.009497869018190385759 803.67720061052682468 78.009497869018190385759 271.23524422118106258
80.009497869018218807469 807.53874338481466566 80.009497869018218807469 271.76873079637385899
82.009497869018190385759 811.27166155036047712 82.009497869018190385759 272.37531986529324968
84.009497869018218807469 814.87777128878076383 84.009497869018218807469 272.90400217166057928
86.009497869018190385759 818.36005072920738712 86.009497869018190385759 273.20269530304324235
88.009497869018190385759 821.72688913541890088 88.009497869018190385759 273.56385342226832336
91.009497869018218807469 826.56847730301899446 91.009497869018218807469 273.98903519037298793
94.009497869018218807469 831.17617477203282306 94.009497869018218807469 274.60353384197151172
97.009497869018218807469 835.58153253103773750 97.009497869018218807469 275.56006371004900757
99.504748934509137825444 839.11438420348088130 99.504748934509137825444 275.75760192917664426
nan nan nan nan

