Time Pressure difference Time.1 Pressure.1 difference.1
(hr) (psi) (hr) (psi)
0.000200000000020850166 0.65531037844360296 0.000200000000020850166 0.52768684303803015
0.000399999999999067768 1.25719235234749327 0.000399999999999067768 1.20898244608551764
0.000600000000019917934 1.82818505594012404 0.000600000000019917934 1.69850586750662425
0.000799999999998135536 2.37605636995256075 0.000799999999998135536 2.16784916815809403
0.001007140329434719206 2.92376141349615182 0.001007140329434719206 2.63496799830939521
0.001267914553977789183 3.58949137247887773 0.001267914553977789183 3.19690387014218969
0.001596209851982166583 4.39597080805445284 0.001596209851982166583 3.86526297305664857
0.002009509145224797066 5.36948147220316052 0.002009509145224797066 4.65623589542708416
0.002529822128153114136 6.54020229367727168 0.002529822128153114136 5.58746226317640460
0.003184857364431081805 7.94253590953912170 0.003184857364431081805 6.67796078703310059
0.004009497869034817086 9.61541608386896662 0.004009497869034817086 7.94804338154767898
0.005047658755856332391 11.60259418659854624 0.005047658755856332391 9.41923406690594689
0.006354625877790454069 13.95290855277719722 0.006354625877790454069 11.11422073255333665
0.008000000000009777068 16.72054774056870841 0.008000000000009777068 13.05687332285418201
0.010071403294361402914 19.96532684413496384 0.010071403294361402914 15.27236375608323549
0.012679145539692626699 23.75300397593193225 0.012679145539692626699 17.78741726481630891
0.015962098519750611558 28.15566951018741193 0.015962098519750611558 20.63070524577990028
0.020095091452091651263 33.25223951703543435 0.020095091452091651263 23.83335620036105240
0.025298221281360611101 39.12907473073421727 0.025298221281360611101 27.42954997721411559
0.031848573644296607199 45.88073980989944545 0.031848573644296607199 31.45724782308345979
0.040094978690191851456 53.61094748627953521 0.040094978690191851456 35.95928752578195287
0.050476587558435426217 62.43380659510530251 0.050476587558435426217 40.98503339025744197
0.063546258777947173257 72.47550398963757345 0.063546258777947173257 46.59202474788932591
0.080000000000012505552 83.87628049107058814 0.080000000000012505552 52.84566884192162917
0.100714032943542974863 96.79192793775823134 0.100714032943542974863 59.81423613398955297
0.126791455396883634421 111.39340212069033953 0.126791455396883634421 67.55768130440941377
0.159620985197506115583 127.86309701359870417 0.159620985197506115583 76.11259495068303238
0.200950914520774404082 146.38743542456066393 0.200950914520774404082 85.47927951666703450
0.252982212813464002465 167.14707878395498142 0.252982212813464002465 95.61849366430871555
0.318485736442809752589 190.30787637325141759 0.318485736442809752589 106.45552850646988929
0.400949786901833249431 216.01277398510521266 0.400949786901833249431 117.90602675740029781
0.504765875584169521062 244.38438721019829813 0.504765875584169521062 129.89110879669490828
0.635462587779443310865 275.52354462476807839 0.635462587779443310865 142.35636200573904375
0.800000000000011368684 309.52011190565957577 0.800000000000011368684 155.29724245928315440
1.007140329435344483500 346.46253781702108654 1.007140329435344483500 168.79066744026238212
1.267914553968907398485 386.46211865040487510 1.267914553968907398485 182.87192582194549573
1.596209851975117999245 429.60531875620614528 1.596209851975117999245 197.78269262717549282
2.009509145207687197399 476.08858587632619219 2.009509145207687197399 213.65417512127535815
2.529822128134725289783 526.02557669627276482 2.529822128134725289783 230.76314904254726912
3.184857364427983839050 579.69234265626005254 3.184857364427983839050 249.48609704675558874
4.009497869018204596614 637.31236657392889811 4.009497869018204596614 269.96321353922843400
5.009497869018190385759 697.04032096744060709 5.009497869018190385759 291.57961883818876458
6.009497869018190385759 748.92419246891120110 6.009497869018190385759 310.57131506195230486
7.009497869018204596614 795.00481460748153495 7.009497869018204596614 327.50940137501885374
8.009497869018190385759 836.56131535614986205 8.009497869018190385759 342.71127286946745016
9.009497869018204596614 874.45707818005325862 9.009497869018204596614 356.45696195870641532
10.009497869018190385759 909.30902970988972811 10.009497869018190385759 368.92687880962921554
11.009497869018190385759 941.57751892215128464 11.009497869018190385759 380.18515371650835277
12.009497869018204596614 971.61820001374348976 12.009497869018204596614 390.47983817184427835
13.009497869018190385759 999.71197959907976838 13.009497869018190385759 399.91733191244929913
14.009497869018204596614 1026.08869805917970552 14.009497869018204596614 408.57577359362556990
15.009497869018190385759 1050.93377554537778451 15.009497869018190385759 416.54790468980439755
16.009497869018190385759 1074.40105929708397525 16.009497869018190385759 423.91438932489234048
17.009497869018204596614 1096.62520685251320174 17.009497869018204596614 430.75037207638263226
18.009497869018190385759 1117.72278142478876362 18.009497869018190385759 437.13344515552824987
19.009497869018204596614 1137.79286144791603874 19.009497869018204596614 443.08353178888398816
20.009497869018190385759 1156.92485430619240105 20.009497869018190385759 448.63020883603070388
21.009497869018190385759 1175.19201063170862653 21.009497869018190385759 453.80091409243692624
22.009497869018204596614 1192.65701184754516362 22.009497869018204596614 458.64068993565859955
23.009497869018190385759 1209.37716332385707574 23.009497869018190385759 463.16613949823050689
24.009497869018204596614 1225.40543720636060243 24.009497869018204596614 467.42533332199343477
25.009497869018204596614 1240.79149987800451527 25.009497869018204596614 471.44066476522181119
26.009497869018190385759 1255.57906871897057499 26.009497869018190385759 475.23567590826132800
27.009497869018204596614 1269.80802170115703120 27.009497869018204596614 478.83607016767768982
28.009497869018190385759 1283.51299319564259349 28.009497869018190385759 482.25036218406927446
29.009497869018190385759 1296.72504877777987531 29.009497869018190385759 485.46424458983767636
30.009497869018190385759 1309.47301702458526051 30.009497869018190385759 488.54246676577258768
31.009497869018218807469 1321.78330604765505996 31.009497869018218807469 491.46296300861143891
32.009497869018190385759 1333.68024021810197155 32.009497869018190385759 494.23757437563637041
33.009497869018190385759 1345.18633142141538883 33.009497869018190385759 496.86219922763348222
34.009497869018218807469 1356.32322499428642004 34.009497869018218807469 499.39138547756709841
35.009497869018190385759 1367.11020493752039329 35.009497869018190385759 501.80197789066050973
36.009497869018190385759 1377.56509763701888005 36.009497869018190385759 504.12538570113440528
37.009497869018190385759 1387.70441642550804318 37.009497869018190385759 506.35951586502540067
38.009497869018218807469 1397.54388817813605783 38.009497869018218807469 508.51426470470096319
39.009497869018190385759 1407.09790146691830159 39.009497869018190385759 510.60467251617808415
40.009497869018190385759 1416.37993034390410685 40.009497869018190385759 512.62420130693931242
41.009497869018218807469 1425.40291425820623772 41.009497869018218807469 514.57114395228427384
42.009497869018190385759 1434.17870008980639795 42.009497869018190385759 516.43845946429826199
43.009497869018190385759 1442.71842221416977736 43.009497869018190385759 518.26503278042798684
44.009497869018218807469 1451.03284919698648991 44.009497869018218807469 519.98854889650260702
46.009497869018190385759 1467.02597227282285530 46.009497869018190385759 523.29842702949440536
48.009497869018218807469 1482.22702229131209606 48.009497869018218807469 526.36835496564583536
50.009497869018190385759 1496.69102706039575423 50.009497869018190385759 529.10256782668943742
52.009497869018190385759 1510.47268027856284789 52.009497869018190385759 531.58323737476689530
54.009497869018218807469 1523.62391122840381286 54.009497869018218807469 533.84557441488868790
56.009497869018190385759 1536.18585444318523514 56.009497869018190385759 535.91338198541029669
58.009497869018218807469 1548.19436227794858496 58.009497869018218807469 537.86860370165391032
60.009497869018190385759 1559.68480869030827307 60.009497869018190385759 539.84399674978169514
62.009497869018190385759 1570.68698919289795413 62.009497869018190385759 541.77336941953046789
64.009497869018218807469 1581.23199261930722059 64.009497869018218807469 543.65637644285698116
66.009497869018190385759 1591.36134745281106007 66.009497869018190385759 545.68212263931889083
68.009497869018190385759 1601.11093342035451315 68.009497869018190385759 547.74954180482882293
70.009497869018190385759 1610.50242103630876045 70.009497869018190385759 549.52832316882029318
72.009497869018190385759 1619.55832501547865832 72.009497869018190385759 550.98846153575993867
74.009497869018218807469 1628.29949777457636628 74.009497869018218807469 552.36872072553103408
76.009497869018190385759 1636.74270276886545616 76.009497869018190385759 553.67302131481244487
78.009497869018190385759 1644.90941059537726687 78.009497869018190385759 555.14503256484715621
80.009497869018218807469 1652.81294206798497726 80.009497869018218807469 556.23693499444732424
82.009497869018190385759 1660.45321382737324711 82.009497869018190385759 557.47845841588059557
84.009497869018218807469 1667.83394310507446789 84.009497869018218807469 558.56052780928655466
86.009497869018190385759 1674.96122532426556972 86.009497869018190385759 559.17187169501369226
88.009497869018190385759 1681.85223103417547463 88.009497869018190385759 559.91106448109132998
91.009497869018218807469 1691.76164980711359931 91.009497869018218807469 560.78129632422133000
94.009497869018218807469 1701.19235771098306031 94.009497869018218807469 562.03900851768003122
97.009497869018218807469 1710.20893106819858076 97.009497869018218807469 563.99676591122181435
99.504748934509137825444 1717.43972093983461491 99.504748934509137825444 564.40107310738028445
nan nan nan nan

