Time Pressure difference Time.1 Pressure.1 difference.1
(hr) (psi) (hr) (psi)
0.000200000000020850166 0.31119762263988449 0.000200000000020850166 0.25059101221897323
0.000399999999999067768 0.59702285225634377 0.000399999999999067768 0.57412865019586234
0.000600000000019917934 0.86817920464736476 0.000600000000019917934 0.80659639370177594
0.000799999999998135536 1.12835553641582775 0.000799999999998135536 1.02948088350886668
0.001007140329434719206 1.38845290869223659 0.001007140329434719206 1.25130900376336585
0.001267914553977789183 1.70459864263837124 0.001267914553977789183 1.51816439495336852
0.001596209851982166583 2.08758431067426065 0.001596209851982166583 1.83555867213649027
0.002009509145224797066 2.54989074479054167 0.002009509145224797066 2.21118051654984793
0.002529822128153114136 3.10584949106135300 0.002529822128153114136 2.65340673685089534
0.003184857364431081805 3.77179787484962903 0.003184857364431081805 3.17126904954996602
0.004009497869034817086 4.56622498959987411 0.004009497869034817086 3.77441329534684256
0.005047658755856332391 5.50990774158104468 0.005047658755856332391 4.47306092674985578
0.006354625877790454069 6.62603876478917098 0.006354625877790454069 5.27798610130386869
0.008000000000009777068 7.94035143844358693 0.008000000000009777068 6.20052431770244272
0.010071403294361402914 9.48125110406409277 0.010071403294361402914 7.25262936361943567
0.012679145539692626699 11.27996535843342940 0.012679145539692626699 8.44699267370272366
0.015962098519750611558 13.37072889981502932 0.015962098519750611558 9.79722988840689268
0.020095091452091651263 15.79101785283874371 0.020095091452091651263 11.31812349240890114
0.025298221281360611101 18.58184370774592864 0.025298221281360611101 13.02590501201035522
0.031848573644296607199 21.78811388232668023 0.031848573644296607199 14.93860170593917758
0.040094978690191851456 25.45908008480854789 0.040094978690191851456 17.07655663324804962
0.050476587558435426217 29.64893098580343178 0.050476587558435426217 19.46321220359257609
0.063546258777947173257 34.41759093571829453 0.063546258777947173257 22.12589303096114435
0.080000000000012505552 39.83165831539425028 0.080000000000012505552 25.09566008931438219
0.100714032943542974863 45.96511646359294900 0.100714032943542974863 28.40493405449732123
0.126791455396883634421 52.89914986553331033 0.126791455396883634421 32.08218655551862497
0.159620985197506115583 60.72037483750806075 0.159620985197506115583 36.14479394918281230
0.200950914520774404082 69.51732093221144737 0.200950914520774404082 40.59289986179621224
0.252982212813464002465 79.37578170562245816 0.252982212813464002465 45.40786913738861585
0.318485736442809752589 90.37451663387281542 0.318485736442809752589 50.55422358298113750
0.400949786901833249431 102.58140865046091506 0.400949786901833249431 55.99190311766954409
0.504765875584169521062 116.05468616374712099 0.504765875584169521062 61.68344892628433485
0.635462587779443310865 130.84223123733278271 0.635462587779443310865 67.60302122646967860
0.800000000000011368684 146.98671980908034129 0.800000000000011368684 73.74846217244495961
1.007140329435344483500 164.53015494506936989 1.007140329435344483500 80.15629869309265132
1.267914553968907398485 183.52538967873110209 1.267914553968907398485 86.84328897480516218
1.596209851975117999245 204.01348470614357211 1.596209851975117999245 93.92420106496005872
2.009509145207687197399 226.08773027916862475 2.009509145207687197399 101.46134343658738430
2.529822128134725289783 249.80210034891493365 2.529822128134725289783 109.58615296997679422
3.184857364427983839050 275.28768783676275689 3.184857364427983839050 118.47741594914420205
4.009497869018204596614 302.65062156935431403 4.009497869018204596614 128.20170871269294821
5.009497869018190385759 331.01458164663847583 5.009497869018190385759 138.46703360352344703
6.009497869018190385759 355.65349779345552861 6.009497869018190385759 147.48592130795910293
7.009497869018204596614 377.53653296428348085 7.009497869018204596614 155.52957873516876930
8.009497869018190385759 397.27112692712137232 8.009497869018190385759 162.74873232157358416
9.009497869018204596614 415.26728826815315188 9.009497869018204596614 169.27636549637199437
10.009497869018190385759 431.81798671154575686 10.009497869018190385759 175.19815249407048441
11.009497869018190385759 447.14183546988010676 11.009497869018190385759 180.54454788363864282
12.009497869018204596614 461.40772968689185518 12.009497869018204596614 185.43334780763382241
13.009497869018190385759 474.74906793746254152 13.009497869018190385759 189.91507999495308923
14.009497869018204596614 487.27499816508981212 14.009497869018204596614 194.02685138692720557
15.009497869018190385759 499.07357377497385187 15.009497869018190385759 197.81270359698476113
16.009497869018190385759 510.21785464336397808 16.009497869018190385759 201.31094287574796908
17.009497869018204596614 520.77178772904733250 17.009497869018204596614 204.55725431937804615
18.009497869018190385759 530.79072725195453586 18.009497869018190385759 207.58848537066180029
19.009497869018204596614 540.32172415791444564 19.009497869018204596614 210.41409728787184008
20.009497869018190385759 549.40723674814614697 20.009497869018190385759 213.04813570295522140
21.009497869018190385759 558.08205071094846517 21.009497869018190385759 215.50363043659106665
22.009497869018204596614 566.37593256687068788 22.009497869018204596614 217.80197147629451138
23.009497869018190385759 574.31609582502801459 23.009497869018190385759 219.95104341468481834
24.009497869018204596614 581.92769620758679139 24.009497869018204596614 221.97367427163160869
25.009497869018204596614 589.23431957676928050 25.009497869018204596614 223.88049833599572480
26.009497869018190385759 596.25672669759330802 26.009497869018190385759 225.68269540848939414
27.009497869018204596614 603.01385505443079182 27.009497869018204596614 227.39247167780126802
28.009497869018190385759 609.52215201984859050 28.009497869018190385759 229.01387062622467283
29.009497869018190385759 615.79637019584072277 29.009497869018190385759 230.54009788741151965
30.009497869018190385759 621.85019986555653304 30.009497869018190385759 232.00190202575501530
31.009497869018218807469 627.69618186737966425 31.009497869018218807469 233.38880435112142209
32.009497869018190385759 633.34586750083383322 32.009497869018190385759 234.70642801400083499
33.009497869018190385759 638.80994734167677507 33.009497869018190385759 235.95282520399030091
34.009497869018218807469 644.09870045390778159 34.009497869018218807469 237.15389995281725533
35.009497869018190385759 649.22128453653931501 35.009497869018190385759 238.29865616725433597
36.009497869018190385759 654.18616508789932595 36.009497869018190385759 239.40200964802730255
37.009497869018190385759 659.00118405594901105 37.009497869018190385759 240.46296643818561733
38.009497869018218807469 663.67380991107825139 38.009497869018218807469 241.48622616113655681
39.009497869018190385759 668.21087558246347271 39.009497869018190385759 242.47893124055943304
40.009497869018190385759 672.61877970669422666 40.009497869018190385759 243.43797687635475313
41.009497869018218807469 676.90366704499297157 41.009497869018218807469 244.36255237916694227
42.009497869018190385759 681.07116351296747325 42.009497869018190385759 245.24931408350238371
43.009497869018190385759 685.12655666791613385 43.009497869018190385759 246.11672789572835995
44.009497869018218807469 689.07496034925384265 44.009497869018218807469 246.93520130244868938
46.009497869018190385759 696.66986811129481794 46.009497869018190385759 248.50701557565028565
48.009497869018218807469 703.88863159039476614 48.009497869018218807469 249.96488089692769563
50.009497869018190385759 710.75738271361274201 50.009497869018190385759 251.26331988116757543
52.009497869018190385759 717.30209474415767090 52.009497869018190385759 252.44135473504914557
54.009497869018218807469 723.54742816326029242 54.009497869018218807469 253.51570657145396126
56.009497869018190385759 729.51291717849903762 56.009497869018190385759 254.49767911635916562
58.009497869018218807469 735.21558756578372140 58.009497869018218807469 255.42618623274887568
60.009497869018190385759 740.67223791685876222 60.009497869018190385759 256.36427242912003521
62.009497869018190385759 745.89701769891041749 62.009497869018190385759 257.28050419922908532
64.009497869018218807469 750.90469055894038775 64.009497869018218807469 258.17471758016955619
66.009497869018190385759 755.71497778580987870 66.009497869018190385759 259.13671577392307199
68.009497869018190385759 760.34491815395847425 68.009497869018190385759 260.11850387078629865
70.009497869018190385759 764.80480268390920173 70.009497869018190385759 260.96322196144893724
72.009497869018190385759 769.10532329502177618 72.009497869018190385759 261.65662100328324868
74.009497869018218807469 773.25638250482177227 74.009497869018218807469 262.31208655459010970
76.009497869018190385759 777.26594104092237103 76.009497869018190385759 262.93148044173744893
78.009497869018190385759 781.14419498593258595 78.009497869018190385759 263.63051774769002122
80.009497869018218807469 784.89747020580102799 80.009497869018218807469 264.14904675535399292
82.009497869018190385759 788.52572711436891950 82.009497869018190385759 264.73862865411678058
84.009497869018218807469 792.03073097227286326 84.009497869018218807469 265.25248809208125067
86.009497869018190385759 795.41537640969693257 86.009497869018190385759 265.54280664968689507
88.009497869018190385759 798.68781747741650179 88.009497869018190385759 265.89383884033560435
91.009497869018218807469 803.39366018237353728 91.009497869018218807469 266.30709962428778681
94.009497869018218807469 807.87216987188230632 94.009497869018218807469 266.90436934172936390
97.009497869018218807469 812.15401292736373762 97.009497869018218807469 267.83408061537471667
99.504748934509137825444 815.58781268375707896 99.504748934509137825444 268.02608037976045807
nan nan nan nan

