Time Pressure difference Time.1 Pressure.1 difference.1
(hr) (psi) (hr) (psi)
0.000200000000020850166 0.36505874963524915 0.000200000000020850166 0.29396253356456470
0.000399999999999067768 0.70035373053148020 0.000399999999999067768 0.67349707042206919
0.000600000000019917934 1.01844099006710120 0.000600000000019917934 0.94619961568862165
0.000799999999998135536 1.32364784079549036 0.000799999999998135536 1.20766026719309338
0.001007140329434719206 1.62876206596589279 0.001007140329434719206 1.46788171595317918
0.001267914553977789183 1.99962533078732019 0.001267914553977789183 1.78092361715683611
0.001596209851982166583 2.44889697982942156 0.001596209851982166583 2.15325151923703695
0.002009509145224797066 2.99121798908121228 0.002009509145224797066 2.59388483672193715
0.002529822128153114136 3.64340036451427940 0.002529822128153114136 3.11265021053662672
0.003184857364431081805 4.42460904549668044 0.003184857364431081805 3.72014253889515212
0.004009497869034817086 5.35653316087677567 0.004009497869034817086 4.42767713492610326
0.005047658755856332391 6.46354561993160992 0.005047658755856332391 5.24724454868733226
0.006354625877790454069 7.77285316638729551 0.006354625877790454069 6.19148369576030699
0.008000000000009777068 9.31464303355882350 0.008000000000009777068 7.27369198807401851
0.010071403294361402914 11.12223687207518452 0.010071403294361402914 8.50789213809203027
0.012679145539692626699 13.23226705508536938 0.012679145539692626699 9.90897217492050153
0.015962098519750611558 15.68489351709070689 0.015962098519750611558 11.49290429216962295
0.020095091452091651263 18.52407863506083530 0.020095091452091651263 13.27702948147967277
0.025298221281360611101 21.79793204177887844 0.025298221281360611101 15.28038857178137988
0.031848573644296607199 25.55913359272937413 0.031848573644296607199 17.52412892427480529
0.040094978690191851456 29.86545933025617572 0.040094978690191851456 20.03211451207944194
0.050476587558435426217 34.78047673334633316 0.050476587558435426217 22.83184508498359833
0.063546258777947173257 40.37448167459261583 0.063546258777947173257 25.95537451708903021
0.080000000000012505552 46.72559917767402737 0.080000000000012505552 29.43913972015725733
0.100714032943542974863 53.92061738998403797 0.100714032943542974863 33.32117264085262320
0.126791455396883634421 62.05477195764484577 0.126791455396883634421 37.63487269012762226
0.159620985197506115583 71.22967048246137267 0.159620985197506115583 42.40062367115675812
0.200950914520774404082 81.54916493970956992 0.200950914520774404082 47.61859406864556377
0.252982212813464002465 93.11389777005712176 0.252982212813464002465 53.26692341116741147
0.318485736442809752589 106.01625989742771594 0.318485736442809752589 59.30399304926633164
0.400949786901833249431 120.33588322457914899 0.400949786901833249431 65.68280942649695930
0.504765875584169521062 136.14107415362641973 0.504765875584169521062 72.35943047121816107
0.635462587779443310865 153.48800202840959628 0.635462587779443310865 79.30354413105096967
0.800000000000011368684 172.42672900680577186 0.800000000000011368684 86.51261908690658231
1.007140329435344483500 193.00652791633137895 1.007140329435344483500 94.02950423612790587
1.267914553968907398485 215.28939943081917363 1.267914553968907398485 101.87385822044453221
1.596209851975117999245 239.32351090528379700 1.596209851975117999245 110.18031278774161308
2.009509145207687197399 265.21829898133239567 2.009509145207687197399 119.02196056984288930
2.529822128134725289783 293.03707925545785429 2.529822128134725289783 128.55298713785740006
3.184857364427983839050 322.93363380851013744 3.184857364427983839050 138.98312255572685103
4.009497869018204596614 355.03245991789646041 4.009497869018204596614 150.39046598988983305
5.009497869018190385759 388.30556693163350701 5.009497869018190385759 162.43248172721018818
6.009497869018190385759 417.20891087309200884 6.009497869018190385759 173.01233076510587239
7.009497869018204596614 442.87939443887097468 7.009497869018204596614 182.44815967010183044
8.009497869018190385759 466.02959120296924311 8.009497869018190385759 190.91678214646131551
9.009497869018204596614 487.14047277610279707 9.009497869018204596614 198.57419798612866657
10.009497869018190385759 506.55571518085179150 10.009497869018190385759 205.52090965650575072
11.009497869018190385759 524.53176853197476248 11.009497869018190385759 211.79264270965305172
12.009497869018204596614 541.26675982500773898 12.009497869018204596614 217.52758108203198617
13.009497869018190385759 556.91717584971570432 13.009497869018190385759 222.78499768638727119
14.009497869018204596614 571.61105553981701632 14.009497869018204596614 227.60842181928001082
15.009497869018190385759 585.45169231295017198 15.009497869018190385759 232.04951768107824250
16.009497869018190385759 598.52479102394636357 16.009497869018190385759 236.15322145039664292
17.009497869018204596614 610.90536637445939050 17.009497869018204596614 239.96139449003965183
18.009497869018190385759 622.65835312248498212 18.009497869018190385759 243.51726168481479817
19.009497869018204596614 633.83894564678416828 19.009497869018204596614 246.83192181846501967
20.009497869018190385759 644.49695080071001030 20.009497869018190385759 249.92185149769744612
21.009497869018190385759 654.67317487245873053 21.009497869018190385759 252.80233570446256408
22.009497869018204596614 664.40253628036759892 22.009497869018204596614 255.49846653949930442
23.009497869018190385759 673.71695856397525404 23.009497869018190385759 258.01949323645720824
24.009497869018204596614 682.64595132043837111 24.009497869018204596614 260.39219481864472527
25.009497869018204596614 691.21718258044086269 25.009497869018204596614 262.62904612491809075
26.009497869018190385759 699.45500631833044736 26.009497869018190385759 264.74316192149717608
27.009497869018204596614 707.38163766000525357 27.009497869018204596614 266.74886100665150934
28.009497869018190385759 715.01637063866849076 28.009497869018190385759 268.65088669614817718
29.009497869018190385759 722.37651119127463062 29.009497869018190385759 270.44126867561732297
30.009497869018190385759 729.47811907305663226 30.009497869018190385759 272.15607737636645425
31.009497869018218807469 736.33590565211841295 31.009497869018218807469 273.78302048881550945
32.009497869018190385759 742.96342149136273747 32.009497869018190385759 275.32869440103945635
33.009497869018190385759 749.37320745850536241 33.009497869018190385759 276.79081418160404837
34.009497869018218807469 755.57732168631491732 34.009497869018218807469 278.19976725234334936
35.009497869018190385759 761.58650686017108455 35.009497869018190385759 279.54265435004828078
36.009497869018190385759 767.41069366080500913 36.009497869018190385759 280.83697285633968477
37.009497869018190385759 773.05908129640170046 37.009497869018190385759 282.08155678325618965
38.009497869018218807469 778.54043085722651085 38.009497869018218807469 283.28191915056402195
39.009497869018190385759 783.86275789481283027 39.009497869018190385759 284.44643857065625525
40.009497869018190385759 789.03356850208353990 40.009497869018190385759 285.57147287418541737
41.009497869018218807469 794.06007095662630491 41.009497869018218807469 286.65607106017660044
42.009497869018190385759 798.94886489021178022 42.009497869018190385759 287.69631075180086555
43.009497869018190385759 803.70615301428631483 43.009497869018190385759 288.71385387768134478
44.009497869018218807469 808.33793425585542991 44.009497869018218807469 289.67398614325713879
46.009497869018190385759 817.24734528440353643 46.009497869018190385759 291.51784519451285860
48.009497869018218807469 825.71551013488613080 48.009497869018218807469 293.22803335985747708
50.009497869018190385759 833.77308356789171739 50.009497869018190385759 294.75120216829276387
52.009497869018190385759 841.45053421910813540 52.009497869018190385759 296.13312766996148184
54.009497869018218807469 848.77679072997852927 54.009497869018218807469 297.39342501651333350
56.009497869018190385759 855.77476822862377048 56.009497869018190385759 298.54535434803676708
58.009497869018218807469 862.46443925986170598 58.009497869018218807469 299.63456461918616469
60.009497869018190385759 868.86550986400732199 60.009497869018190385759 300.73501188800622685
62.009497869018190385759 874.99457845449103388 62.009497869018190385759 301.80982223371103146
64.009497869018218807469 880.86896392491087227 64.009497869018218807469 302.85880331519888387
66.009497869018190385759 886.51180086412318815 66.009497869018190385759 303.98730119633285085
68.009497869018190385759 891.94307706522033641 68.009497869018190385759 305.13901415611468337
70.009497869018190385759 897.17486468689355661 70.009497869018190385759 306.12993345477661933
72.009497869018190385759 902.21970617300632966 72.009497869018190385759 306.94334386923617330
74.009497869018218807469 907.08921793834861091 74.009497869018218807469 307.71225538134609678
76.009497869018190385759 911.79273852877440731 76.009497869018190385759 308.43885205665355898
78.009497869018190385759 916.34222873349790461 78.009497869018190385759 309.25887658863632623
80.009497869018218807469 920.74510927988217190 80.009497869018218807469 309.86715100147296198
82.009497869018190385759 925.00133373031746942 82.009497869018190385759 310.55877592117548147
84.009497869018218807469 929.11297287132003930 84.009497869018218807469 311.16157256955688126
86.009497869018190385759 933.08342232675988726 86.009497869018190385759 311.50213856982497873
88.009497869018190385759 936.92224742543101002 88.009497869018190385759 311.91392633193208894
91.009497869018218807469 942.44256290624593930 91.009497869018218807469 312.39871302079910720
94.009497869018218807469 947.69619927278517935 94.009497869018218807469 313.09935634318253506
97.009497869018218807469 952.71913054940750953 97.009497869018218807469 314.18997918342034836
99.504748934509137825444 956.74724180209966562 99.504748934509137825444 314.41520967625746152
nan nan nan nan

