Time Pressure difference Time.1 Pressure.1 difference.1
(hr) (psi) (hr) (psi)
0.000200000000020850166 0.00673264087442058 0.000200000000020850166 0.00542144016819894
0.000399999999999067768 0.01291635978439206 0.000399999999999067768 0.01242105252827587
0.000600000000019917934 0.01878272317746703 0.000600000000019917934 0.01745040274835573
0.000799999999998135536 0.02441153804745782 0.000799999999998135536 0.02227242296052836
0.001007140329434719206 0.03003864465920704 0.001007140329434719206 0.02707158902372667
0.001267914553977789183 0.03687833601861860 0.001267914553977789183 0.03284490277543346
0.001596209851982166583 0.04516408364439507 0.001596209851982166583 0.03971160588756830
0.002009509145224797066 0.05516590553633383 0.002009509145224797066 0.04783804002151114
0.002529822128153114136 0.06719385918161580 0.002529822128153114136 0.05740543421071648
0.003184857364431081805 0.08160139633088140 0.003184857364431081805 0.06860918616814830
0.004009497869034817086 0.09878852140961267 0.004009497869034817086 0.08165797994740766
0.005047658755856332391 0.11920473479382068 0.005047658755856332391 0.09677295274218439
0.006354625877790454069 0.14335180019976571 0.006354625877790454069 0.11418719930705484
0.008000000000009777068 0.17178644938940454 0.008000000000009777068 0.13414595879644706
0.010071403294361402914 0.20512322100138664 0.010071403294361402914 0.15690784680907433
0.012679145539692626699 0.24403771208149247 0.012679145539692626699 0.18274743765222237
0.015962098519750611558 0.28927057715945975 0.015962098519750611558 0.21195930047034142
0.020095091452091651263 0.34163259777776128 0.020095091452091651263 0.24486324863384645
0.025298221281360611101 0.40201104175411861 0.025298221281360611101 0.28181044497137786
0.031848573644296607199 0.47137746380033679 0.031848573644296607199 0.32319090229195335
0.040094978690191851456 0.55079740568095403 0.040094978690191851456 0.36944473485392415
0.050476587558435426217 0.64144321844286267 0.050476587558435426217 0.42107911017387784
0.063546258777947173257 0.74461134235929005 0.063546258777947173257 0.47868518576598618
0.080000000000012505552 0.86174260778497180 0.080000000000012505552 0.54293495385535928
0.100714032943542974863 0.99443761579888601 0.100714032943542974863 0.61452982329441319
0.126791455396883634421 1.14445276151394193 0.126791455396883634421 0.69408576682612411
0.159620985197506115583 1.31366195561916466 0.159620985197506115583 0.78197871524674356
0.200950914520774404082 1.50398050093726687 0.200950914520774404082 0.87821177585616805
0.252982212813464002465 1.71726450805433206 0.252982212813464002465 0.98238178422234967
0.318485736442809752589 1.95521790794436368 0.318485736442809752589 1.09372118328564971
0.400949786901833249431 2.21930932176477924 0.400949786901833249431 1.21136328860342779
0.504765875584169521062 2.51079849873491368 0.504765875584169521062 1.33449769311672850
0.635462587779443310865 2.83072134888460347 0.635462587779443310865 1.46256536307266138
0.800000000000011368684 3.18000114971568015 0.800000000000011368684 1.59551961430770328
1.007140329435344483500 3.55954662140775069 1.007140329435344483500 1.73415069287940837
1.267914553968907398485 3.97050121901100939 1.267914553968907398485 1.87882115570491948
1.596209851975117999245 4.41375327489252900 1.596209851975117999245 2.03201396534769341
2.009509145207687197399 4.89132108777047492 2.009509145207687197399 2.19507714165693857
2.529822128134725289783 5.40437236331787041 2.529822128134725289783 2.37085427098507484
3.184857364427983839050 5.95574324646842523 3.184857364427983839050 2.56321332582283112
4.009497869018204596614 6.54772979356776208 4.009497869018204596614 2.77359465964960705
5.009497869018190385759 7.16137316062438956 5.009497869018190385759 2.99568101546084353
6.009497869018190385759 7.69442663495456625 6.009497869018190385759 3.19080118214334574
7.009497869018204596614 8.16785768432344028 7.009497869018204596614 3.36482261686663220
8.009497869018190385759 8.59480803448099095 8.009497869018190385759 3.52100622811096686
9.009497869018204596614 8.98414806349369677 9.009497869018204596614 3.66222906121958669
10.009497869018190385759 9.34221605866324900 10.009497869018190385759 3.79034464530440962
11.009497869018190385759 9.67374163276182841 11.009497869018190385759 3.90601185325179845
12.009497869018204596614 9.98237876726448548 12.009497869018204596614 4.01177915929977047
13.009497869018190385759 10.27101348903164180 13.009497869018190385759 4.10873971142927275
14.009497869018204596614 10.54200717184088631 14.009497869018204596614 4.19769630404409888
15.009497869018190385759 10.79726481724703113 15.009497869018190385759 4.27960176051168872
16.009497869018190385759 11.03836704757277865 16.009497869018190385759 4.35528482183108512
17.009497869018204596614 11.26669733067650547 17.009497869018204596614 4.42551752133269805
18.009497869018190385759 11.48345323381632177 18.009497869018190385759 4.49109703926912562
19.009497869018204596614 11.68965268610872599 19.009497869018204596614 4.55222806632415011
20.009497869018190385759 11.88621425657047048 20.009497869018190385759 4.60921447434278075
21.009497869018190385759 12.07389052018878672 21.009497869018190385759 4.66233815848394073
22.009497869018204596614 12.25332546418710855 22.009497869018204596614 4.71206188290060179
23.009497869018190385759 12.42510784236839427 23.009497869018190385759 4.75855622772154696
24.009497869018204596614 12.58978188910644569 24.009497869018204596614 4.80231506837664490
25.009497869018204596614 12.74785787545895133 25.009497869018204596614 4.84356847361529219
26.009497869018190385759 12.89978495259216196 26.009497869018190385759 4.88255831412597274
27.009497869018204596614 13.04597282569681838 27.009497869018204596614 4.91954866610627750
28.009497869018190385759 13.18677732735249108 28.009497869018190385759 4.95462700874043804
29.009497869018190385759 13.32251762442924559 29.009497869018190385759 4.98764634852572986
30.009497869018190385759 13.45348990093751951 30.009497869018190385759 5.01927191882643076
31.009497869018218807469 13.57996547309234892 31.009497869018218807469 5.04927701721176181
32.009497869018190385759 13.70219424881611658 32.009497869018190385759 5.07778329837982589
33.009497869018190385759 13.82040751460358230 33.009497869018190385759 5.10474862220171310
34.009497869018218807469 13.93482765405089019 34.009497869018218807469 5.13073341244075820
35.009497869018190385759 14.04565279045397475 35.009497869018190385759 5.15549977284925198
36.009497869018190385759 14.15306607161320684 36.009497869018190385759 5.17937040103905222
37.009497869018190385759 14.25723715505658795 37.009497869018190385759 5.20232379313382243
38.009497869018218807469 14.35832761826852000 38.009497869018218807469 5.22446162367843492
39.009497869018190385759 14.45648528904368035 39.009497869018190385759 5.24593841626210367
40.009497869018190385759 14.55184859942367304 40.009497869018190385759 5.26668699972882948
41.009497869018218807469 14.64455048895417377 41.009497869018218807469 5.28668983512620816
42.009497869018190385759 14.73471267215554725 42.009497869018190385759 5.30587458353731201
43.009497869018190385759 14.82244954329626374 43.009497869018190385759 5.32464074774412310
44.009497869018218807469 14.90787173832520196 44.009497869018218807469 5.34234810510105351
46.009497869018190385759 15.07218464663858981 46.009497869018190385759 5.37635370235781895
48.009497869018218807469 15.22835981806142414 48.009497869018218807469 5.40789405786622446
50.009497869018190385759 15.37696260678488791 50.009497869018190385759 5.43598528589064500
52.009497869018190385759 15.51855493436879563 52.009497869018190385759 5.46147161686404381
54.009497869018218807469 15.65367032083976717 54.009497869018218807469 5.48471480563241709
56.009497869018190385759 15.78273138126560227 56.009497869018190385759 5.50595940395969397
58.009497869018218807469 15.90610646175974274 58.009497869018218807469 5.52604729830466290
60.009497869018190385759 16.02415899339358063 60.009497869018190385759 5.54634243236077040
62.009497869018190385759 16.13719509444758060 62.009497869018190385759 5.56616475431024504
64.009497869018218807469 16.24553417074630701 64.009497869018218807469 5.58551071687866862
66.009497869018190385759 16.34960288478915658 66.009497869018190385759 5.60632317780122058
68.009497869018190385759 16.44976986390775409 68.009497869018190385759 5.62756378566604987
70.009497869018190385759 16.54625775037303370 70.009497869018190385759 5.64583893666596293
72.009497869018190385759 16.63929785974806919 72.009497869018190385759 5.66084035824410936
74.009497869018218807469 16.72910442919085128 74.009497869018218807469 5.67502110334449750
76.009497869018190385759 16.81584968598149388 76.009497869018190385759 5.68842145186451198
78.009497869018190385759 16.89975421844565773 78.009497869018190385759 5.70354485511829346
80.009497869018218807469 16.98095488426012167 80.009497869018218807469 5.71476303076487024
82.009497869018190385759 17.05945082699356163 82.009497869018190385759 5.72751840838233495
84.009497869018218807469 17.13528023738090411 84.009497869018218807469 5.73863555968445027
86.009497869018190385759 17.20850573963286578 86.009497869018190385759 5.74491649001726401
88.009497869018190385759 17.27930374350180287 88.009497869018190385759 5.75251093644956768
91.009497869018218807469 17.38111284048404315 91.009497869018218807469 5.76145167456391771
94.009497869018218807469 17.47800367511284136 94.009497869018218807469 5.77437337518164551
97.009497869018218807469 17.57063970275546438 97.009497869018218807469 5.79448732100570307
99.504748934509137825444 17.64492863979281978 99.504748934509137825444 5.79864116206212543
nan nan nan nan

