Time Pressure difference Time.1 Pressure.1 difference.1
(hr) (psi) (hr) (psi)
0.000200000000020850166 0.20048308381607946 0.000200000000020850166 0.16143844056414619
0.000399999999999067768 0.38462049135745230 0.000399999999999067768 0.36987134195310362
0.000600000000019917934 0.55930775684012923 0.000600000000019917934 0.51963421517325947
0.000799999999998135536 0.72692135519096612 0.000799999999998135536 0.66322326149128907
0.001007140329434719206 0.89448408540749857 0.001007140329434719206 0.80613176203986070
0.001267914553977789183 1.09815489477664285 0.001267914553977789183 0.97804821597957392
0.001596209851982166583 1.34488604629976427 0.001596209851982166583 1.18252337531870055
0.002009509145224797066 1.64271807597082975 0.002009509145224797066 1.42451052508499831
0.002529822128153114136 2.00088380674144872 0.002529822128153114136 1.70940626316355759
0.003184857364431081805 2.42990824629735691 0.003184857364431081805 2.04302909922930498
0.004009497869034817086 2.94170263753068806 0.004009497869034817086 2.43159318065613927
0.005047658755856332391 3.54965210274932685 0.005047658755856332391 2.88168348165615740
0.006354625877790454069 4.26869805039302364 0.006354625877790454069 3.40024104603229960
0.008000000000009777068 5.11541871515115698 0.008000000000009777068 3.99456855082753481
0.010071403294361402914 6.10811369204129040 0.010071403294361402914 4.67236699387021304
0.012679145539692626699 7.26690075975999772 0.012679145539692626699 5.44181258786617761
0.015962098519750611558 8.61383496430391205 0.015962098519750611558 6.31167694733905638
0.020095091452091651263 10.17305957827111307 0.020095091452091651263 7.29148340376342752
0.025298221281360611101 11.97099546556708738 0.025298221281360611101 8.39168880581436483
0.031848573644296607199 14.03657336649891896 0.031848573644296607199 9.62390686824927677
0.040094978690191851456 16.40152274694396795 0.040094978690191851456 11.00124321565018626
0.050476587558435426217 19.10075361585413489 0.050476587558435426217 12.53880016962214050
0.063546258777947173257 22.17287108358774717 0.063546258777947173257 14.25418108725381217
0.080000000000012505552 25.66077987626360368 0.080000000000012505552 16.16739640369291919
0.100714032943542974863 29.61214233712238197 0.100714032943542974863 18.29933251587808130
0.126791455396883634421 34.07926000952627277 0.126791455396883634421 20.66833172326680668
0.159620985197506115583 39.11793378954845934 0.159620985197506115583 23.28558840956969789
0.200950914520774404082 44.78519713902083765 0.200950914520774404082 26.15119510327255981
0.252982212813464002465 51.13632090650678208 0.252982212813464002465 29.25314646350997450
0.318485736442809752589 58.22204436989883192 0.318485736442809752589 32.56858634672823172
0.400949786901833249431 66.08609980366232151 0.400949786901833249431 36.07170681619096086
0.504765875584169521062 74.76599974010632366 0.504765875584169521062 39.73837575058701788
0.635462587779443310865 84.29259127789708828 0.635462587779443310865 43.55194636705257949
0.800000000000011368684 94.69336756931137700 0.800000000000011368684 47.51102851494050583
1.007140329435344483500 105.99538828191970197 1.007140329435344483500 51.63915396574238059
1.267914553968907398485 118.23270296610560592 1.267914553968907398485 55.94711885876871094
1.596209851975117999245 131.43176418568864960 1.596209851975117999245 60.50886030146465089
2.009509145207687197399 145.65267239138748323 2.009509145207687197399 65.36451932933995579
2.529822128134725289783 160.93019926324328139 2.529822128134725289783 70.59877162488888303
3.184857364427983839050 177.34879889483755733 3.184857364427983839050 76.32679681339098465
4.009497869018204596614 194.97684274179559338 4.009497869018204596614 82.59148542067718779
5.009497869018190385759 213.24977856081517302 5.009497869018190385759 89.20472357150066500
6.009497869018190385759 229.12292646309154520 6.009497869018190385759 95.01496853493517847
7.009497869018204596614 243.22065104429799476 7.009497869018204596614 100.19694014669526894
8.009497869018190385759 255.93428369343396866 8.009497869018190385759 104.84774101485989206
9.009497869018204596614 267.52796455736785219 9.009497869018204596614 109.05304315631657630
10.009497869018190385759 278.19043374686123116 10.009497869018190385759 112.86804054906464501
11.009497869018190385759 288.06252862001889525 11.009497869018190385759 116.31235296349798602
12.009497869018204596614 297.25305662520918304 12.009497869018204596614 119.46186829914870486
13.009497869018190385759 305.84795722894222081 13.009497869018190385759 122.34913807367168204
14.009497869018204596614 313.91754689481751939 14.009497869018204596614 124.99806772042427383
15.009497869018190385759 321.51855233580050708 15.009497869018190385759 127.43703020190363873
16.009497869018190385759 328.69804097216717764 16.009497869018190385759 129.69070358341454607
17.009497869018204596614 335.49720940236710476 17.009497869018204596614 131.78207730190703728
18.009497869018190385759 341.95171851808606789 18.009497869018190385759 133.73488961379175066
19.009497869018204596614 348.09187998634871519 19.009497869018204596614 135.55523575276359338
20.009497869018190385759 353.94504675120958836 20.009497869018190385759 137.25216434709614077
21.009497869018190385759 359.53362882339945372 21.009497869018190385759 138.83406960818848574
22.009497869018204596614 364.87680271134939858 22.009497869018204596614 140.31473162415127831
23.009497869018190385759 369.99210019496996438 23.009497869018190385759 141.69922989215271514
24.009497869018204596614 374.89572736450298862 24.009497869018204596614 143.00227092499343939
25.009497869018204596614 379.60287895811103454 25.009497869018204596614 144.23070565876648175
26.009497869018190385759 384.12692969941105048 26.009497869018190385759 145.39173646508450588
27.009497869018204596614 388.48007969852750421 27.009497869018204596614 146.49322694627579722
28.009497869018190385759 392.67292485894085985 28.009497869018190385759 147.53778203804859004
29.009497869018190385759 396.71496926078197021 29.009497869018190385759 148.52102460054396715
30.009497869018190385759 400.61503260569503482 30.009497869018190385759 149.46276380505372572
31.009497869018218807469 404.38119408763878937 31.009497869018218807469 150.35624895697245051
32.009497869018190385759 408.02089540919104138 32.009497869018190385759 151.20510266286589740
33.009497869018190385759 411.54102376819560050 33.009497869018190385759 152.00807008333990211
34.009497869018218807469 414.94820125395978039 34.009497869018218807469 152.78183939268035374
35.009497869018190385759 418.24832753796283669 35.009497869018190385759 153.51932656928883603
36.009497869018190385759 421.44685635470438001 36.009497869018190385759 154.23014083094068383
37.009497869018190385759 424.54883972835176564 37.009497869018190385759 154.91364183998493331
38.009497869018218807469 427.55908907732930402 38.009497869018218807469 155.57285723842448988
39.009497869018190385759 430.48200638485627678 39.009497869018190385759 156.21238839536042065
40.009497869018190385759 433.32171384950487436 40.009497869018190385759 156.83023510303624448
41.009497869018218807469 436.08217011552432041 41.009497869018218807469 157.42587509042485294
42.009497869018190385759 438.76699957085406822 42.009497869018190385759 157.99715426533327900
43.009497869018190385759 441.37960862259984651 43.009497869018190385759 158.55596893282498172
44.009497869018218807469 443.92329176346163422 44.009497869018218807469 159.08325468523136692
46.009497869018190385759 448.81616503323800771 46.009497869018190385759 160.09586580354394414
48.009497869018218807469 453.46671458227348239 48.009497869018218807469 161.03506750090534183
50.009497869018190385759 457.89177540203894523 50.009497869018190385759 161.87156184652141633
52.009497869018190385759 462.10808026787083236 52.009497869018190385759 162.63048814661817687
54.009497869018218807469 466.13151622056193446 54.009497869018218807469 163.32261865660976241
56.009497869018190385759 469.97466779768683409 56.009497869018190385759 163.95523558457753666
58.009497869018218807469 473.64850352795684785 58.009497869018218807469 164.55340843840554044
60.009497869018190385759 477.16384558105318092 60.009497869018190385759 165.15775243029850117
62.009497869018190385759 480.52980947910572240 62.009497869018190385759 165.74801712834951672
64.009497869018218807469 483.75590641777893097 64.009497869018218807469 166.32409690260922730
66.009497869018190385759 486.85484145816599266 66.009497869018190385759 166.94384573896968504
68.009497869018190385759 489.83759150303086471 68.009497869018190385759 167.57634383983349835
70.009497869018190385759 492.71078634444154432 70.009497869018190385759 168.12053722516421317
72.009497869018190385759 495.48131404583131143 72.009497869018190385759 168.56724622326899521
74.009497869018218807469 498.15555411368325167 74.009497869018218807469 168.98951729959171075
76.009497869018190385759 500.73863509367123470 76.009497869018190385759 169.38854989996545441
78.009497869018190385759 503.23712561593737291 78.009497869018190385759 169.83889124130030268
80.009497869018218807469 505.65510099796802024 80.009497869018218807469 170.17294358277615629
82.009497869018190385759 507.99253573714156573 82.009497869018190385759 170.55277038294065051
84.009497869018218807469 510.25056706867582079 84.009497869018218807469 170.88381444393698416
86.009497869018190385759 512.43105980240090958 86.009497869018190385759 171.07084659162521234
88.009497869018190385759 514.53926702872036003 88.009497869018190385759 171.29699232983156776
91.009497869018218807469 517.57091569441377032 91.009497869018218807469 171.56322764256998425
94.009497869018218807469 520.45610943669350945 94.009497869018218807469 171.94800717207564844
97.009497869018218807469 523.21460448205164084 97.009497869018218807469 172.54695578105872755
99.504748934509137825444 525.42676394049738064 99.504748934509137825444 172.67064793696107472
nan nan nan nan

