Time Pressure difference Time.1 Pressure.1 difference.1
(hr) (psi) (hr) (psi)
0.000200000000020850166 0.73535399772838095 0.000200000000020850166 0.59214174281550647
0.000399999999999067768 1.41075351867304333 0.000399999999999067768 1.35665495947724191
0.000600000000019917934 2.05149076482778758 0.000600000000019917934 1.90597176684818681
0.000799999999998135536 2.66628243340567028 0.000799999999998135536 2.43264353002215339
0.001007140329434719206 3.28088752222227997 0.001007140329434719206 2.95681911225814575
0.001267914553977789183 4.02793381181134347 0.001267914553977789183 3.58739326980567608
0.001596209851982166583 4.93292158027115057 0.001596209851982166583 4.33738984305329378
0.002009509145224797066 6.02534279357957292 0.002009509145224797066 5.22497703790504975
0.002529822128153114136 7.33906261950314853 0.002529822128153114136 6.26994909212603346
0.003184857364431081805 8.91268584369515793 0.003184857364431081805 7.49364777814330818
0.004009497869034817086 10.78990183840547168 0.004009497869034817086 8.91886603203352557
0.005047658755856332391 13.01980603359174715 0.005047658755856332391 10.56975694950747346
0.006354625877790454069 15.65720217737441189 0.006354625877790454069 12.47177965764832308
0.008000000000009777068 18.76289774997607296 0.008000000000009777068 14.65171972187860838
0.010071403294361402914 22.40401402715144741 0.010071403294361402914 17.13782371259111770
0.012679145539692626699 26.65434121956745273 0.012679145539692626699 19.96008124579273257
0.015962098519750611558 31.59477526086099175 0.015962098519750611558 23.15066581803840151
0.020095091452091651263 37.31387151283770720 0.020095091452091651263 26.74450815634122591
0.025298221281360611101 43.90853933825540167 0.025298221281360611101 30.77996304520716109
0.031848573644296607199 51.48489410174789782 0.031848573644296607199 35.29962855033223690
0.040094978690191851456 60.15931664270865298 0.040094978690191851456 40.35157492904527032
0.050476587558435426217 70.05985374770378371 0.050476587558435426217 45.99119614454688332
0.063546258777947173257 81.32810550435357300 0.063546258777947173257 52.28305973421827701
0.080000000000012505552 94.12144260584747713 0.080000000000012505552 59.30056218220201458
0.100714032943542974863 108.61468625892275952 0.100714032943542974863 67.12031292204535760
0.126791455396883634421 124.99967384091165457 0.126791455396883634421 75.80958986556444756
0.159620985197506115583 143.48107804151544542 0.159620985197506115583 85.40945300972765608
0.200950914520774404082 164.26809249125926726 0.200950914520774404082 95.92024174073479514
0.252982212813464002465 187.56344571304541091 0.252982212813464002465 107.29792154339664023
0.318485736442809752589 213.55324483436771743 0.318485736442809752589 119.45865812997706712
0.400949786901833249431 242.39789592164200371 0.400949786901833249431 132.30779029968547889
0.504765875584169521062 274.23499158404666787 0.504765875584169521062 145.75680359263822083
0.635462587779443310865 309.17767621706281034 0.635462587779443310865 159.74463910004732270
0.800000000000011368684 347.32679224116822070 0.800000000000011368684 174.26619787383026505
1.007140329435344483500 388.78159209375769478 1.007140329435344483500 189.40779234449536261
1.267914553968907398485 433.66696647642464768 1.267914553968907398485 205.20902178421511053
1.596209851975117999245 482.07994102437288575 1.596209851975117999245 221.94108088186476380
2.009509145207687197399 534.24095880870845576 2.009509145207687197399 239.75120336097450036
2.529822128134725289783 590.27755923794074988 2.529822128134725289783 258.94997204203650654
3.184857364427983839050 650.49951236427352796 3.184857364427983839050 279.95985547598257881
4.009497869018204596614 715.15759856412341833 4.009497869018204596614 302.93817227061816766
5.009497869018190385759 782.18109076597488638 5.009497869018190385759 327.19493757755657271
6.009497869018190385759 840.40237579559311598 6.009497869018190385759 348.50639578298989818
7.009497869018204596614 892.11156707666032162 7.009497869018204596614 367.51340359776656896
8.009497869018190385759 938.74403309942374563 8.009497869018190385759 384.57212469256444365
9.009497869018204596614 981.26861626825609619 9.009497869018204596614 399.99679635320597981
10.009497869018190385759 1020.37759840733053807 10.009497869018190385759 413.98986514824827054
11.009497869018190385759 1056.58755833387544953 11.009497869018190385759 426.62329463850193179
12.009497869018204596614 1090.29759202455443301 12.009497869018204596614 438.17543484351932648
13.009497869018190385759 1121.82291774645591431 13.009497869018190385759 448.76568181499732191
14.009497869018204596614 1151.42144999106562864 14.009497869018204596614 458.48171854170544748
15.009497869018190385759 1179.30125726153687538 15.009497869018190385759 467.42761450922114363
16.009497869018190385759 1205.63497864044916241 16.009497869018190385759 475.69388665110636794
17.009497869018204596614 1230.57371956166730342 17.009497869018204596614 483.36485816333805587
18.009497869018190385759 1254.24828098238276652 18.009497869018190385759 490.52759884461670481
19.009497869018204596614 1276.76984338276406561 19.009497869018204596614 497.20446546629329987
20.009497869018190385759 1298.23873491208587438 20.009497869018190385759 503.42864758655042579
21.009497869018190385759 1318.73715348284190441 21.009497869018190385759 509.23093442107932560
22.009497869018204596614 1338.33543681065839337 22.009497869018204596614 514.66187009903239868
23.009497869018190385759 1357.09788989423691419 23.009497869018190385759 519.74008576114226798
24.009497869018204596614 1375.08395522129262645 24.009497869018204596614 524.51952357936022509
25.009497869018204596614 1392.34936573068330290 25.009497869018204596614 529.02531217375917549
26.009497869018190385759 1408.94317871089947403 26.009497869018190385759 533.28386919842569114
27.009497869018204596614 1424.91014307333011857 27.009497869018204596614 537.32403764249670530
28.009497869018190385759 1440.28912364305551819 28.009497869018190385759 541.15537217687221982
29.009497869018190385759 1455.11498053488298865 29.009497869018190385759 544.76181784453251566
30.009497869018190385759 1469.42006362462029756 30.009497869018190385759 548.21603291182020712
31.009497869018218807469 1483.23400667219743809 31.009497869018218807469 551.49325643546239917
32.009497869018190385759 1496.58410517624929525 32.009497869018190385759 554.60677581192987873
33.009497869018190385759 1509.49562076170241198 33.009497869018190385759 557.55198840269827087
34.009497869018218807469 1521.99284265911387592 34.009497869018218807469 560.39010493658497580
35.009497869018190385759 1534.09741033513978437 35.009497869018190385759 563.09514185675720910
36.009497869018190385759 1545.82932759953132518 36.009497869018190385759 565.70234491348765005
37.009497869018190385759 1557.20712482451403957 37.009497869018190385759 568.20936540561649508
38.009497869018218807469 1568.24844986199514096 38.009497869018218807469 570.62730845287796910
39.009497869018190385759 1578.96944879221518931 39.009497869018190385759 572.97305146507187601
40.009497869018190385759 1589.38524147038538104 40.009497869018190385759 575.23925785927099241
41.009497869018218807469 1599.51034784910575581 41.009497869018218807469 577.42401199211803942
42.009497869018190385759 1609.35806185876685959 42.009497869018190385759 579.51941284635313423
43.009497869018190385759 1618.94087789558057011 43.009497869018190385759 581.56909500360814036
44.009497869018218807469 1628.27087986374158390 44.009497869018218807469 583.50313192381508998
46.009497869018190385759 1646.21750084952600446 46.009497869018190385759 587.21729882419288060
48.009497869018218807469 1663.27530012826446182 48.009497869018218807469 590.66220654249980271
50.009497869018190385759 1679.50602694106055424 50.009497869018190385759 593.73039289227824611
52.009497869018190385759 1694.97105560939189672 52.009497869018190385759 596.51406659748386119
54.009497869018218807469 1709.72865837616564022 54.009497869018218807469 599.05273932629631872
56.009497869018190385759 1723.82499419823193421 56.009497869018190385759 601.37312156581992895
58.009497869018218807469 1737.30029465664756572 58.009497869018218807469 603.56716602594258347
60.009497869018190385759 1750.19425450065409677 60.009497869018190385759 605.78384566784859544
62.009497869018190385759 1762.54030864910805576 62.009497869018190385759 607.94888372077446093
64.009497869018218807469 1774.37334331595775438 64.009497869018218807469 610.06189274352561824
66.009497869018190385759 1785.73995952752670746 66.009497869018190385759 612.33507597540005918
68.009497869018190385759 1796.68041958014691772 68.009497869018190385759 614.65502236774739231
70.009497869018190385759 1807.21904095741047058 70.009497869018190385759 616.65107497140456871
72.009497869018190385759 1817.38108845915007805 72.009497869018190385759 618.28956357266213217
74.009497869018218807469 1827.18996154384535657 74.009497869018218807469 619.83841606529347246
76.009497869018190385759 1836.66447125775653149 76.009497869018190385759 621.30203190920167344
78.009497869018190385759 1845.82871074800914357 78.009497869018190385759 622.95384362014249291
80.009497869018218807469 1854.69762791418861525 80.009497869018218807469 624.17911769354077478
82.009497869018190385759 1863.27112921496336639 82.009497869018190385759 625.57228838220385114
84.009497869018218807469 1871.55338592726957359 84.009497869018218807469 626.78652835220168527
86.009497869018190385759 1879.55123800656747335 86.009497869018190385759 627.47254552077447443
88.009497869018190385759 1887.28395331802994406 88.009497869018190385759 628.30202783665833977
91.009497869018218807469 1898.40376913286831950 91.009497869018218807469 629.27855512181452013
94.009497869018218807469 1908.98640140399129450 94.009497869018218807469 630.68989197817302284
97.009497869018218807469 1919.10431420095801514 97.009497869018218807469 632.88678183873400940
99.504748934509137825444 1927.21831699070480681 99.504748934509137825444 633.34047358967438868
nan nan nan nan

