Time Pressure difference Time.1 Pressure.1 difference.1
(hr) (psi) (hr) (psi)
0.000200000000020850166 0.55282462291075640 0.000200000000020850166 0.44516047603322406
0.000399999999999067768 1.06057665340730312 0.000399999999999067768 1.01990642426620726
0.000600000000019917934 1.54227026979423698 0.000600000000019917934 1.43287195900387587
0.000799999999998135536 2.00445851300792510 0.000799999999998135536 1.82881339642560681
0.001007140329434719206 2.46650648923933380 0.001007140329434719206 2.22287825428155594
0.001267914553977789183 3.02812114641768337 0.001267914553977789183 2.69693146122725791
0.001596209851982166583 3.70847309035643935 0.001596209851982166583 3.26076408343477508
0.002009509145224797066 4.52973379903896678 0.002009509145224797066 3.92803461954408117
0.002529822128153114136 5.51736243724600950 0.002529822128153114136 4.71362398685772011
0.003184857364431081805 6.70038132094681682 0.003184857364431081805 5.63357650869573234
0.004009497869034817086 8.11163525796708562 0.004009497869034817086 6.70502746457047305
0.005047658755856332391 9.78803322362594130 0.005047658755856332391 7.94613467516380823
0.006354625877790454069 11.77077559418076191 0.006354625877790454069 9.37603780976816914
0.008000000000009777068 14.10557623319665943 0.008000000000009777068 11.01487372784159824
0.010071403294361402914 16.84289559111385870 0.010071403294361402914 12.88387764354510168
0.012679145539692626699 20.03820769202476981 0.012679145539692626699 15.00559515833248092
0.015962098519750611558 23.75232850231563830 0.015962098519750611558 17.40421367195359181
0.020095091452091651263 28.05183219530728778 0.020095091452091651263 20.10599341560138953
0.025298221281360611101 33.00957331736596245 0.025298221281360611101 23.13976875931647470
0.031848573644296607199 38.70532730538321431 0.031848573644296607199 26.53756408819483781
0.040094978690191851456 45.22658697758056690 0.040094978690191851456 30.33551767300555113
0.050476587558435426217 52.66961538103061002 0.050476587558435426217 34.57527360205507705
0.063546258777947173257 61.14086466705725798 0.063546258777947173257 39.30537247567376369
0.080000000000012505552 70.75864301701047054 0.080000000000012505552 44.58099232212338592
0.100714032943542974863 81.65437756393073698 0.100714032943542974863 50.45972660161903889
0.126791455396883634421 93.97228786208923168 0.126791455396883634421 56.99215352050063643
0.159620985197506115583 107.86624280028475198 0.159620985197506115583 64.20914117414928057
0.200950914520774404082 123.49351002140446099 0.200950914520774404082 72.11094470641202747
0.252982212813464002465 141.00649682801682161 0.252982212813464002465 80.66445983781294160
0.318485736442809752589 160.54511488565387367 0.318485736442809752589 89.80666160534389064
0.400949786901833249431 182.22995430935245054 0.400949786901833249431 99.46638558643701344
0.504765875584169521062 206.16445450723347221 0.504765875584169521062 109.57708835702914030
0.635462587779443310865 232.43367520285801220 0.635462587779443310865 120.09286703452185918
0.800000000000011368684 261.11342773776533477 0.800000000000011368684 131.00988833037698100
1.007140329435344483500 292.27832813559200531 1.007140329435344483500 142.39304022643139547
1.267914553968907398485 326.02226676101508929 1.267914553968907398485 154.27209267399283021
1.596209851975117999245 362.41818557173098725 1.596209851975117999245 166.85092448799395015
2.009509145207687197399 401.63180931804231477 2.009509145207687197399 180.24022307605306992
2.529822128134725289783 443.75901961021185116 2.529822128134725289783 194.67347847310779230
3.184857364427983839050 489.03269546001843082 3.184857364427983839050 210.46829419811913908
4.009497869018204596614 537.64136860517510286 4.009497869018204596614 227.74293927567330798
5.009497869018190385759 588.02830730015818972 5.009497869018190385759 245.97869671395147861
6.009497869018190385759 631.79792035904711156 6.009497869018190385759 262.00023040043691935
7.009497869018204596614 670.67186985722480586 7.009497869018204596614 276.28932376271563953
8.009497869018190385759 705.72923749793903880 8.009497869018190385759 289.11373361933380011
9.009497869018204596614 737.69837988020481134 9.009497869018204596614 300.70969736014160389
10.009497869018190385759 767.09974081690461389 10.009497869018190385759 311.22941031999539518
11.009497869018190385759 794.32167406788789776 11.009497869018190385759 320.72697328367542013
12.009497869018204596614 819.66421211205067721 12.009497869018204596614 329.41164430250336181
13.009497869018190385759 843.36432982159806215 13.009497869018190385759 337.37318297180365789
14.009497869018204596614 865.61592222115723416 14.009497869018204596614 344.67750763206538522
15.009497869018190385759 886.57541110506178939 15.009497869018190385759 351.40285566868203659
16.009497869018190385759 906.37258312847598063 16.009497869018190385759 357.61727592590801805
17.009497869018204596614 925.12103637443749449 17.009497869018204596614 363.38416091831822996
18.009497869018190385759 942.91910442114021862 18.009497869018190385759 368.76896800220930572
19.009497869018204596614 959.85037055937209516 19.009497869018204596614 373.78850455706083267
20.009497869018190385759 975.99025951173086924 20.009497869018190385759 378.46772183770167430
21.009497869018190385759 991.40056604661276651 21.009497869018190385759 382.82976656884807198
22.009497869018204596614 1006.13416867047476444 22.009497869018204596614 386.91263682928280332
23.009497869018190385759 1020.23941061224923033 23.009497869018190385759 390.73033914291363544
24.009497869018204596614 1033.76097956107355458 24.009497869018204596614 394.32342617003786245
25.009497869018204596614 1046.74077444046270102 25.009497869018204596614 397.71078911130007327
26.009497869018190385759 1059.21567555173396613 26.009497869018190385759 400.91228823767710310
27.009497869018204596614 1071.21932424332771916 27.009497869018204596614 403.94960713917100747
28.009497869018190385759 1082.78093832372132965 28.009497869018190385759 406.82992882879813124
29.009497869018190385759 1093.92672493924578703 29.009497869018190385759 409.54118350672382576
30.009497869018190385759 1104.68100408809186774 30.009497869018190385759 412.13799422363689473
31.009497869018218807469 1115.06605384613840215 31.009497869018218807469 414.60174619105464444
32.009497869018190385759 1125.10239443056775599 32.009497869018190385759 416.94242861141015055
33.009497869018190385759 1134.80901703244967393 33.009497869018190385759 419.15658131189621827
34.009497869018218807469 1144.20418181595641727 34.009497869018218807469 421.29022131041335797
35.009497869018190385759 1153.30415690505424209 35.009497869018190385759 423.32381468173298344
36.009497869018190385759 1162.12398076912882061 36.009497869018190385759 425.28385848531769398
37.009497869018190385759 1170.67758417631330303 37.009497869018190385759 427.16858701398831499
38.009497869018218807469 1178.97823443338188554 38.009497869018218807469 428.98634887759595813
39.009497869018190385759 1187.03806984480888786 39.009497869018190385759 430.74983217974386207
40.009497869018190385759 1194.86845721934378162 40.009497869018190385759 432.45352142217831215
41.009497869018218807469 1202.48031237079294442 41.009497869018218807469 434.09597646202973920
42.009497869018190385759 1209.88362941366085579 42.009497869018190385759 435.67125747045258777
43.009497869018190385759 1217.08780138843781060 43.009497869018190385759 437.21216806476741112
44.009497869018218807469 1224.10191273581381211 44.009497869018218807469 438.66613885218652058
46.009497869018190385759 1237.59382820732434993 46.009497869018190385759 441.45837622693647972
48.009497869018218807469 1250.41754506082133958 48.009497869018218807469 444.04818986257106417
50.009497869018190385759 1262.61948515711492291 50.009497869018190385759 446.35479180813177891
52.009497869018190385759 1274.24578849983777218 52.009497869018190385759 448.44750276250312027
54.009497869018218807469 1285.34026301117637558 54.009497869018218807469 450.35602681803965197
56.009497869018190385759 1295.93761008391993528 56.009497869018190385759 452.10044439180154541
58.009497869018218807469 1306.06807502671676957 58.009497869018218807469 453.74988371634958639
60.009497869018190385759 1315.76149956865037893 60.009497869018190385759 455.41633972384545359
62.009497869018190385759 1325.04301942186248198 62.009497869018190385759 457.04397260391903046
64.009497869018218807469 1333.93886135350226141 64.009497869018218807469 458.63249108592623315
66.009497869018190385759 1342.48405909546499970 66.009497869018190385759 460.34142537723363375
68.009497869018190385759 1350.70888104753657899 68.009497869018190385759 462.08551528969007904
70.009497869018190385759 1358.63160861396386281 70.009497869018190385759 463.58610824401625905
72.009497869018190385759 1366.27123537264697006 72.009497869018190385759 464.81789163804404552
74.009497869018218807469 1373.64535257467105112 74.009497869018218807469 465.98228837462045249
76.009497869018190385759 1380.76810199336932783 76.009497869018190385759 467.08260588087489396
78.009497869018190385759 1387.65759638126019127 78.009497869018190385759 468.32440532582432979
80.009497869018218807469 1394.32507327424764298 80.009497869018218807469 469.24554219280435063
82.009497869018190385759 1400.77046234980457484 82.009497869018190385759 470.29290042161613883
84.009497869018218807469 1406.99689949160983815 84.009497869018218807469 471.20574206742321621
86.009497869018190385759 1413.00952684318735919 86.009497869018190385759 471.72147623586198506
88.009497869018190385759 1418.82282960531460958 88.009497869018190385759 472.34506467069223845
91.009497869018218807469 1427.18248767974546354 91.009497869018218807469 473.07919861141505180
94.009497869018218807469 1435.13830176759870483 94.009497869018218807469 474.14021380658175531
97.009497869018218807469 1442.74474892625426037 97.009497869018218807469 475.79179224702386364
99.504748934509137825444 1448.84469608965514453 99.504748934509137825444 476.13286875154562949
nan nan nan nan

