Time Pressure difference Time.1 Pressure.1 difference.1
(hr) (psi) (hr) (psi)
0.000200000000020850166 0.42116409025542062 0.000200000000020850166 0.33914120163288919
0.000399999999999067768 0.80799006206808077 0.000399999999999067768 0.77700584149103480
0.000600000000019917934 1.17496368321265976 0.000600000000019917934 1.09161963859158595
0.000799999999998135536 1.52707732452430545 0.000799999999998135536 1.39326379186416305
0.001007140329434719206 1.87908410479261812 0.001007140329434719206 1.69347829115090120
0.001267914553977789183 2.30694479760914195 0.001267914553977789183 2.05463114028544824
0.001596209851982166583 2.82526434353271361 0.001596209851982166583 2.48418156830010606
0.002009509145224797066 3.45093386855066120 0.002009509145224797066 2.99253517023452975
0.002529822128153114136 4.20334919102774496 0.002529822128153114136 3.59102882895926445
0.003184857364431081805 5.10462068158735871 0.003184857364431081805 4.29188575696305463
0.004009497869034817086 6.17977083929021465 0.004009497869034817086 5.10816030115450115
0.005047658755856332391 7.45691840988011556 0.005047658755856332391 6.05368582153886781
0.006354625877790454069 8.96745150138534441 0.006354625877790454069 7.14304368998576322
0.008000000000009777068 10.74619677847052834 0.008000000000009777068 8.39157497804441022
0.010071403294361402914 12.83159704708674020 0.010071403294361402914 9.81545752816764860
0.012679145539692626699 15.26591465576447249 0.012679145539692626699 11.43186748868902214
0.015962098519750611558 18.09548166008620385 0.015962098519750611558 13.25923179608913749
0.020095091452091651263 21.37101694987551070 0.020095091452091651263 15.31755655342839262
0.025298221281360611101 25.14802405639653315 0.025298221281360611101 17.62880894654286479
0.031848573644296607199 29.48727912439884591 0.031848573644296607199 20.21738644337441215
0.040094978690191851456 34.45543771093079499 0.040094978690191851456 23.11082063586214730
0.050476587558435426217 40.12583688703685425 0.050476587558435426217 26.34083766976591434
0.063546258777947173257 46.57957619425337015 0.063546258777947173257 29.94441773180558286
0.080000000000012505552 53.90678757588212733 0.080000000000012505552 33.96359766895191967
0.100714032943542974863 62.20759752164141787 0.100714032943542974863 38.44225450163939684
0.126791455396883634421 71.59187830359437044 0.126791455396883634421 43.41892074701198823
0.159620985197506115583 82.17685344595440711 0.159620985197506115583 48.91711296487962102
0.200950914520774404082 94.08233578085348370 0.200950914520774404082 54.93702553411362288
0.252982212813464002465 107.42443533717656123 0.252982212813464002465 61.45343827968699202
0.318485736442809752589 122.30974246363074087 0.318485736442809752589 68.41833624331341923
0.400949786901833249431 138.83012757261897718 0.400949786901833249431 75.77750349819220332
0.504765875584169521062 157.06439497641738967 0.504765875584169521062 83.48024458052422858
0.635462587779443310865 177.07734660244798874 0.635462587779443310865 91.49158882332314136
0.800000000000011368684 198.92673858776976203 0.800000000000011368684 99.80861587280412550
1.007140329435344483500 222.66941642806264667 1.007140329435344483500 108.48076001012297809
1.267914553968907398485 248.37690958924423512 1.267914553968907398485 117.53070118465218741
1.596209851975117999245 276.10478819605486933 1.596209851975117999245 127.11376249897239177
2.009509145207687197399 305.97930804608637345 2.009509145207687197399 137.31427008365071174
2.529822128134725289783 338.07351561644014737 2.529822128134725289783 148.31010606273301278
3.184857364427983839050 372.56482752908033262 3.184857364427983839050 160.34323360425045735
4.009497869018204596614 409.59687486429447745 4.009497869018204596614 173.50375482030321450
5.009497869018190385759 447.98367660350345432 5.009497869018190385759 187.39649018938385439
6.009497869018190385759 481.32913283104676339 6.009497869018190385759 199.60234061630040969
7.009497869018204596614 510.94487514156628549 7.009497869018204596614 210.48834814399043580
8.009497869018190385759 537.65299149031079651 8.009497869018190385759 220.25850071405270114
9.009497869018204596614 562.00837330521687818 9.009497869018204596614 229.09277349629189757
10.009497869018190385759 584.40751566971221109 10.009497869018190385759 237.10711503404252198
11.009497869018190385759 605.14628213832327219 11.009497869018190385759 244.34274148675137894
12.009497869018204596614 624.45324955221178698 12.009497869018204596614 250.95907407619671403
13.009497869018190385759 642.50895492497932082 13.009497869018190385759 257.02449528163117520
14.009497869018204596614 659.46111530515770482 14.009497869018204596614 262.58922435298080700
15.009497869018190385759 675.42889912334214841 15.009497869018190385759 267.71286568534230810
16.009497869018190385759 690.51118308705281379 16.009497869018190385759 272.44726163232235194
17.009497869018204596614 704.79451079676368863 17.009497869018204596614 276.84070716781212695
18.009497869018190385759 718.35379673762099628 18.009497869018190385759 280.94307034539087908
19.009497869018204596614 731.25271803102361901 19.009497869018204596614 284.76715570449960069
20.009497869018190385759 743.54873627213055443 20.009497869018190385759 288.33197211722063003
21.009497869018190385759 755.28892920736529959 21.009497869018190385759 291.65515369182872973
22.009497869018204596614 766.51358181526006774 22.009497869018204596614 294.76564889700432559
23.009497869018190385759 777.25952391704504407 23.009497869018190385759 297.67412846747009780
24.009497869018204596614 787.56080039632536227 24.009497869018204596614 300.41148705511676553
25.009497869018204596614 797.44933154259877028 25.009497869018204596614 302.99211673837885428
26.009497869018190385759 806.95321425659858505 26.009497869018190385759 305.43114787254694420
27.009497869018204596614 816.09807787414536051 27.009497869018204596614 307.74509989087050599
28.009497869018190385759 824.90618169993922493 28.009497869018190385759 309.93944510231852973
29.009497869018190385759 833.39749139485161322 29.009497869018190385759 312.00498824666510700
30.009497869018190385759 841.59053491420263526 30.009497869018190385759 313.98334336658672328
31.009497869018218807469 849.50228459455468055 31.009497869018218807469 315.86032896558020866
32.009497869018190385759 857.14837356483042186 32.009497869018190385759 317.64355522087134887
33.009497869018190385759 864.54327008020186440 33.009497869018190385759 319.33038603328498084
34.009497869018218807469 871.70088547007219404 34.009497869018218807469 320.95587902268295011
35.009497869018190385759 878.63361344728764379 35.009497869018190385759 322.50515245712540491
36.009497869018190385759 885.35291092424836279 36.009497869018190385759 323.99839286499849322
37.009497869018190385759 891.86939092187333245 37.009497869018190385759 325.43425505937142361
38.009497869018218807469 898.19316100946412007 38.009497869018218807469 326.81909934788427563
39.009497869018190385759 904.33346863684357686 39.009497869018190385759 328.16259203950716028
40.009497869018190385759 910.29897349728082645 40.009497869018190385759 329.46053120525897384
41.009497869018218807469 916.09799169791119766 41.009497869018218807469 330.71181968622835257
42.009497869018190385759 921.73813715817482262 42.009497869018190385759 331.91193228127849579
43.009497869018190385759 927.22656587508845405 43.009497869018190385759 333.08586010888240025
44.009497869018218807469 932.57019874189882103 44.009497869018218807469 334.19355368576589171
46.009497869018190385759 942.84888400639169959 46.009497869018190385759 336.32079271416137090
48.009497869018218807469 952.61850861873142549 48.009497869018218807469 338.29381717540934460
50.009497869018190385759 961.91443862443259150 50.009497869018190385759 340.05107955071480319
52.009497869018190385759 970.77182533884797522 52.009497869018190385759 341.64539114382853313
54.009497869018218807469 979.22404340364300879 54.009497869018218807469 343.09938173011681783
56.009497869018190385759 987.29752973917061354 56.009497869018190385759 344.42834938103419518
58.009497869018218807469 995.01532644119299675 58.009497869018218807469 345.68495877172506425
60.009497869018190385759 1002.40016814228704334 60.009497869018190385759 346.95453215767929578
62.009497869018190385759 1009.47120424155423279 62.009497869018190385759 348.19452851962972773
64.009497869018218807469 1016.24841534779670837 64.009497869018218807469 349.40472595585447380
66.009497869018190385759 1022.75849157069933426 66.009497869018190385759 350.70666101134304427
68.009497869018190385759 1029.02449259778495616 68.009497869018190385759 352.03537903666506281
70.009497869018190385759 1035.06034594000220750 70.009497869018190385759 353.17859126032635686
72.009497869018190385759 1040.88052167090677358 72.009497869018190385759 354.11701352127039399
74.009497869018218807469 1046.49842151493908204 74.009497869018218807469 355.00409790921696640
76.009497869018190385759 1051.92481924528692616 76.009497869018190385759 355.84236415552447852
78.009497869018190385759 1057.17351388721158401 78.009497869018190385759 356.78841704795547685
80.009497869018218807469 1062.25306664871641260 80.009497869018218807469 357.49017625784688335
82.009497869018190385759 1067.16342395526385189 82.009497869018190385759 358.28809599102828543
84.009497869018218807469 1071.90697484949419049 84.009497869018218807469 358.98353556692728716
86.009497869018190385759 1076.48763682370031347 86.009497869018190385759 359.37644265330214921
88.009497869018190385759 1080.91644528794608959 88.009497869018190385759 359.85151746901181014
91.009497869018218807469 1087.28516991027981931 91.009497869018218807469 360.41081030883179892
94.009497869018218807469 1093.34622989872536891 94.009497869018218807469 361.21913446969620054
97.009497869018218807469 1099.14112807236961089 97.009497869018218807469 362.47737352513456699
99.504748934509137825444 1103.78831380037308918 99.504748934509137825444 362.73721936010855416
nan nan nan nan

