Time Pressure difference Time.1 Pressure.1 difference.1
(hr) (psi) (hr) (psi)
0.000200000000020850166 0.42789673112984117 0.000200000000020850166 0.34456264180108814
0.000399999999999067768 0.82090642185247287 0.000399999999999067768 0.78942689401931065
0.000600000000019917934 1.19374640639012664 0.000600000000019917934 1.10907004133994169
0.000799999999998135536 1.55148886257176333 0.000799999999998135536 1.41553621482469172
0.001007140329434719206 1.90912274945182525 0.001007140329434719206 1.72054988017462795
0.001267914553977789183 2.34382313362776040 0.001267914553977789183 2.08747604306088164
0.001596209851982166583 2.87042842717710833 0.001596209851982166583 2.52389317418767467
0.002009509145224797066 3.50609977408699480 0.002009509145224797066 3.04037321025604124
0.002529822128153114136 4.27054305020936020 0.002529822128153114136 3.64843426316998087
0.003184857364431081805 5.18622207791823975 0.003184857364431081805 4.36049494313120256
0.004009497869034817086 6.27855936069982778 0.004009497869034817086 5.18981828110190868
0.005047658755856332391 7.57612314467393588 0.005047658755856332391 6.15045877428105214
0.006354625877790454069 9.11080330158511131 0.006354625877790454069 7.25723088929281879
0.008000000000009777068 10.91798322785993136 0.008000000000009777068 8.52572093684085708
0.010071403294361402914 13.03672026808812667 0.010071403294361402914 9.97236537497672337
0.012679145539692626699 15.50995236784596720 0.012679145539692626699 11.61461492634124326
0.015962098519750611558 18.38475223724566376 0.015962098519750611558 13.47119109655947788
0.020095091452091651263 21.71264954765327460 0.020095091452091651263 15.56241980206223907
0.025298221281360611101 25.55003509815065144 0.025298221281360611101 17.91061939151423843
0.031848573644296607199 29.95865658819918664 0.031848573644296607199 20.54057734566637095
0.040094978690191851456 35.00623511661174803 0.040094978690191851456 23.48026537071606867
0.050476587558435426217 40.76728010547971337 0.050476587558435426217 26.76191677993979212
0.063546258777947173257 47.32418753661265498 0.063546258777947173257 30.42310291757156904
0.080000000000012505552 54.76853018366709591 0.080000000000012505552 34.50653262280727773
0.100714032943542974863 63.20203513744029777 0.100714032943542974863 39.05678432493381536
0.126791455396883634421 72.73633106510831681 0.126791455396883634421 44.11300651383810845
0.159620985197506115583 83.49051540157357465 0.159620985197506115583 49.69909168012636513
0.200950914520774404082 95.58631628179072948 0.200950914520774404082 55.81523730996979538
0.252982212813464002465 109.14169984523088885 0.252982212813464002465 62.43582006390933969
0.318485736442809752589 124.26496037157512831 0.318485736442809752589 69.51205742659905695
0.400949786901833249431 141.04943689438377419 0.400949786901833249431 76.98886678679562579
0.504765875584169521062 159.57519347515227537 0.504765875584169521062 84.81474227364095952
0.635462587779443310865 179.90806795133258333 0.635462587779443310865 92.95415418639579741
0.800000000000011368684 202.10673973748546928 0.800000000000011368684 101.40413548711181591
1.007140329435344483500 226.22896304947036583 1.007140329435344483500 110.21491070300238846
1.267914553968907398485 252.34741080825526183 1.267914553968907398485 119.40952234035711399
1.596209851975117999245 280.51854147094741165 1.596209851975117999245 129.14577646432007896
2.009509145207687197399 310.87062913385682350 2.009509145207687197399 139.50934722530766408
2.529822128134725289783 343.47788797975800890 2.529822128134725289783 150.68096033371807607
3.184857364427983839050 378.52057077554877651 3.184857364427983839050 162.90644693007328669
4.009497869018204596614 416.14460465786225996 4.009497869018204596614 176.27734947995281800
5.009497869018190385759 455.14504976412786164 5.009497869018190385759 190.39217120484471479
6.009497869018190385759 489.02355946600135894 6.009497869018190385759 202.79314179844374166
7.009497869018204596614 519.11273282588979328 7.009497869018204596614 213.85317076085706844
8.009497869018190385759 546.24779952479184431 8.009497869018190385759 223.77950694216366401
9.009497869018204596614 570.99252136871052699 9.009497869018204596614 232.75500255751148870
10.009497869018190385759 593.74973172837542279 10.009497869018190385759 240.89745967934692317
11.009497869018190385759 614.82002377108517521 11.009497869018190385759 248.24875334000313387
12.009497869018204596614 634.43562831947622271 12.009497869018204596614 254.97085323549646318
13.009497869018190385759 652.77996841401102301 13.009497869018190385759 261.13323499306045505
14.009497869018204596614 670.00312247699855561 14.009497869018204596614 266.78692065702489344
15.009497869018190385759 686.22616394058911737 15.009497869018190385759 271.99246744585406077
16.009497869018190385759 701.54955013462551960 16.009497869018190385759 276.80254645415340065
17.009497869018204596614 716.06120812744018167 17.009497869018204596614 281.26622468914484898
18.009497869018190385759 729.83724997143735891 18.009497869018190385759 285.43416738466004290
19.009497869018204596614 742.94237071713234855 19.009497869018204596614 289.31938377082377656
20.009497869018190385759 755.43495052870093787 20.009497869018190385759 292.94118659156345075
21.009497869018190385759 767.36281972755409697 21.009497869018190385759 296.31749185031270599
22.009497869018204596614 778.76690727944719583 22.009497869018204596614 299.47771077990489630
23.009497869018190385759 789.68463175941349164 23.009497869018190385759 302.43268469519165365
24.009497869018204596614 800.15058228543182395 24.009497869018204596614 305.21380212349345129
25.009497869018204596614 810.19718941805774648 25.009497869018204596614 307.83568521199413226
26.009497869018190385759 819.85299920919067063 26.009497869018190385759 310.31370618667295957
27.009497869018204596614 829.14405069984229613 27.009497869018204596614 312.66464855697671510
28.009497869018190385759 838.09295902729172667 28.009497869018190385759 314.89407211105890383
29.009497869018190385759 846.72000901928095118 29.009497869018190385759 316.99263459519085018
30.009497869018190385759 855.04402481514011924 30.009497869018190385759 319.00261528541312828
31.009497869018218807469 863.08225006764712361 31.009497869018218807469 320.90960598279195892
32.009497869018190385759 870.85056781364653489 32.009497869018190385759 322.72133851925116232
33.009497869018190385759 878.36367759480549466 33.009497869018190385759 324.43513465548670638
34.009497869018218807469 885.63571312412318548 34.009497869018218807469 326.08661243512375449
35.009497869018190385759 892.67926623774155814 35.009497869018190385759 327.66065222997463025
36.009497869018190385759 899.50597699586160161 36.009497869018190385759 329.17776326603751613
37.009497869018190385759 906.12662807692981914 37.009497869018190385759 330.63657885250518120
38.009497869018218807469 912.55148862773262408 38.009497869018218807469 332.04356097156272654
39.009497869018190385759 918.78995392588717550 39.009497869018190385759 333.40853045576920977
40.009497869018190385759 924.85082209670440534 40.009497869018190385759 334.72721820498782108
41.009497869018218807469 930.74254218686530749 41.009497869018218807469 335.99850952135454918
42.009497869018190385759 936.47284983033034678 42.009497869018190385759 337.21780686481582734
43.009497869018190385759 942.04901541838466983 43.009497869018190385759 338.41050085662647007
44.009497869018218807469 947.47807048022411891 44.009497869018218807469 339.53590179086694434
46.009497869018190385759 957.92106865303037466 46.009497869018190385759 341.69714641651916054
48.009497869018218807469 967.84686843679276080 48.009497869018218807469 343.70171123327554596
50.009497869018190385759 977.29140123121737815 50.009497869018190385759 345.48706483660544109
52.009497869018190385759 986.29038027321701065 52.009497869018190385759 347.10686276069253609
54.009497869018218807469 994.87771372448298735 54.009497869018218807469 348.58409653574921094
56.009497869018190385759 1003.08026112043603462 56.009497869018190385759 349.93430878499390246
58.009497869018218807469 1010.92143290295257430 58.009497869018218807469 351.21100607002966854
60.009497869018190385759 1018.42432713568064173 60.009497869018190385759 352.50087459004004131
62.009497869018190385759 1025.60839933600186669 62.009497869018190385759 353.76069327393997810
64.009497869018218807469 1032.49394951854310420 64.009497869018218807469 354.99023667273314686
66.009497869018190385759 1039.10809445548875374 66.009497869018190385759 356.31298418914423110
68.009497869018190385759 1045.47426246169266051 68.009497869018190385759 357.66294282233116064
70.009497869018190385759 1051.60660369037532291 70.009497869018190385759 358.82443019699229581
72.009497869018190385759 1057.51981953065501330 72.009497869018190385759 359.77785387951450957
74.009497869018218807469 1063.22752594412963845 74.009497869018218807469 360.67911901256138663
76.009497869018190385759 1068.74066893126837385 76.009497869018190385759 361.53078560738896385
78.009497869018190385759 1074.07326810565723463 78.009497869018190385759 362.49196190307372945
80.009497869018218807469 1079.23402153297661243 80.009497869018218807469 363.20493928861174027
82.009497869018190385759 1084.22287478225734958 82.009497869018190385759 364.01561439941059461
84.009497869018218807469 1089.04225508687522961 84.009497869018218807469 364.72217112661172678
86.009497869018190385759 1093.69614256333306912 86.009497869018190385759 365.12135914331946651
88.009497869018190385759 1098.19574903144780365 88.009497869018190385759 365.60402840546140624
91.009497869018218807469 1104.66628275076368482 91.009497869018218807469 366.17226198339568555
94.009497869018218807469 1110.82423357383845541 94.009497869018218807469 366.99350784487785404
97.009497869018218807469 1116.71176777512505396 97.009497869018218807469 368.27186084614021411
99.504748934509137825444 1121.43324244016594093 99.504748934509137825444 368.53586052217059432
nan nan nan nan

