Time Pressure difference Time.1 Pressure.1 difference.1
(hr) (psi) (hr) (psi)
0.000200000000020850166 0.67027180260898200 0.000200000000020850166 0.53973448785624989
0.000399999999999067768 1.28589537409058674 0.000399999999999067768 1.23658478503724178
0.000600000000019917934 1.86992444077893971 0.000600000000019917934 1.73728454028074797
0.000799999999998135536 2.43030423228024439 0.000799999999998135536 2.21734344140371276
0.001007140329434719206 2.99051395718327839 0.001007140329434719206 2.69512708502878784
0.001267914553977789183 3.67144323029803044 0.001267914553977789183 3.26989254297648602
0.001596209851982166583 4.49633543837533090 0.001596209851982166583 3.95351098614013319
0.002009509145224797066 5.49207237339501297 0.002009509145224797066 4.76254265103044183
0.002529822128153114136 6.68952198074752946 0.002529822128153114136 5.71502989475577383
0.003184857364431081805 8.12387234582996953 0.003184857364431081805 6.83042564518454220
0.004009497869034817086 9.83494613144588392 0.004009497869034817086 8.12950555920858342
0.005047658755856332391 11.86749359725147990 0.005047658755856332391 9.63428507299969183
0.006354625877790454069 14.27146810877667527 0.006354625877790454069 11.36797006434679247
0.008000000000009777068 17.10229540587849328 0.008000000000009777068 13.35497545351295301
0.010071403294361402914 20.42115622413804488 0.010071403294361402914 15.62104786010339907
0.012679145539692626699 24.29531000277969355 0.012679145539692626699 18.19352268182124988
0.015962098519750611558 28.79849301498621372 0.015962098519750611558 21.10172591349176940
0.020095091452091651263 34.01142306765267875 0.020095091452091651263 24.37749675288071316
0.025298221281360611101 40.02243260129892377 0.025298221281360611101 28.05579541048384584
0.031848573644296607199 46.92824528501131454 0.031848573644296607199 32.17544982817668853
0.040094978690191851456 54.83494172112609988 0.040094978690191851456 36.78027582545733765
0.050476587558435426217 63.85923596942276959 0.050476587558435426217 41.92076474619939574
0.063546258777947173257 74.13019586154709373 0.063546258777947173257 47.65576960514707139
0.080000000000012505552 85.79126406392607862 0.080000000000012505552 54.05219096160020342
0.100714032943542974863 99.00178930620019457 0.100714032943542974863 61.17985796353269734
0.126791455396883634421 113.93663047961021562 0.126791455396883634421 69.10009411957858561
0.159620985197506115583 130.78234580386350672 0.159620985197506115583 77.85032542900913199
0.200950914520774404082 149.72961431553235911 0.200950914520774404082 87.43086124079185595
0.252982212813464002465 170.96322213518683952 0.252982212813464002465 97.80156429591393419
0.318485736442809752589 194.65280505757223750 0.318485736442809752589 108.88602002488244125
0.400949786901833249431 220.94457247791581267 0.400949786901833249431 120.59794517651901913
0.504765875584169521062 249.96393942960918366 0.504765875584169521062 132.85665922584317400
0.635462587779443310865 281.81403651117835807 0.635462587779443310865 145.60650725701160013
0.800000000000011368684 316.58678112724999210 0.800000000000011368684 158.84284160218913939
1.007140329435344483500 354.37264142014942081 1.007140329435344483500 172.64433564666109078
1.267914553968907398485 395.28545469265156953 1.267914553968907398485 187.04708394573418673
1.596209851975117999245 439.41365936707848050 1.596209851975117999245 202.29827921683707359
2.009509145207687197399 486.95818829359387792 2.009509145207687197399 218.53212432495743656
2.529822128134725289783 538.03529305920142178 2.529822128134725289783 236.03171408918075258
3.184857364427983839050 592.92732764841207427 3.184857364427983839050 255.18212665969520003
4.009497869018204596614 651.86287722630174812 4.009497869018204596614 276.12675722733871453
5.009497869018190385759 712.95448354660584300 5.009497869018190385759 298.23668776143506420
6.009497869018190385759 766.02291832436560526 6.009497869018190385759 317.66198435560414737
7.009497869018204596614 813.15560946153368604 7.009497869018204596614 334.98678496805587201
8.009497869018190385759 855.66088876610763236 8.009497869018190385759 350.53573115415844086
9.009497869018204596614 894.42185165448381667 9.009497869018204596614 364.59524876141659888
10.009497869018190385759 930.06950984025240814 10.009497869018190385759 377.34986691030570682
11.009497869018190385759 963.07472255051106913 11.009497869018190385759 388.86518005706790291
12.009497869018204596614 993.80126394099784193 12.009497869018204596614 399.39490297028817167
13.009497869018190385759 1022.53645401915014190 13.009497869018190385759 409.04786460451430230
14.009497869018204596614 1049.51538066327066190 14.009497869018204596614 417.90398760261246025
15.009497869018190385759 1074.92769736148215998 15.009497869018190385759 426.05813082427482641
16.009497869018190385759 1098.93076384724577110 16.009497869018190385759 433.59280004007251819
17.009497869018204596614 1121.66231203179449949 17.009497869018204596614 440.58485545712193243
18.009497869018190385759 1143.24156638882504922 18.009497869018190385759 447.11366079834851917
19.009497869018204596614 1163.76986741704649830 19.009497869018204596614 453.19959415849319839
20.009497869018190385759 1183.33866376523792496 20.009497869018190385759 458.87290766790351881
21.009497869018190385759 1202.02287845435057534 21.009497869018190385759 464.16166555573460073
22.009497869018204596614 1219.88662399018312499 22.009497869018204596614 469.11193856432663551
23.009497869018190385759 1236.98851408467567126 23.009497869018190385759 473.74070889316726607
24.009497869018204596614 1253.38273029326387586 24.009497869018204596614 478.09714458505266066
25.009497869018204596614 1269.12007293458009372 25.009497869018204596614 482.20415026214465115
26.009497869018190385759 1284.24525750250836609 26.009497869018190385759 486.08580549520792147
27.009497869018204596614 1298.79907242492777186 27.009497869018204596614 489.76840053680268738
28.009497869018190385759 1312.81694281198156204 28.009497869018190385759 493.26064442571464497
29.009497869018190385759 1326.33064349873370702 29.009497869018190385759 496.54790314211709301
30.009497869018190385759 1339.36966124889090679 30.009497869018190385759 499.69640436316461773
31.009497869018218807469 1351.96100709897154957 31.009497869018218807469 502.68357860241536628
32.009497869018190385759 1364.12956077102671770 32.009497869018190385759 505.52153726092484476
33.009497869018190385759 1375.89834812053436508 33.009497869018190385759 508.20608505474831418
34.009497869018218807469 1387.28950866995523938 34.009497869018218807469 510.79301528299100710
35.009497869018190385759 1398.32276669408452108 35.009497869018190385759 513.25864405254765188
36.009497869018190385759 1409.01635557393706222 36.009497869018190385759 515.63509770344342087
37.009497869018190385759 1419.38716565896720567 37.009497869018190385759 517.92023540532284187
38.009497869018218807469 1429.45128288539945061 38.009497869018218807469 520.12417942398644755
39.009497869018190385759 1439.22342433145968243 39.009497869018190385759 522.26231344120492395
40.009497869018190385759 1448.71737167595665596 40.009497869018190385759 524.32795019522563962
41.009497869018218807469 1457.94635978921564856 41.009497869018218807469 526.31934358589808198
42.009497869018190385759 1466.92250602793001235 42.009497869018190385759 528.22929187215902402
43.009497869018190385759 1475.65719897705025687 43.009497869018190385759 530.09756777541485917
44.009497869018218807469 1484.16145305993131842 44.009497869018218807469 531.86043357450489566
46.009497869018190385759 1500.51971593201960786 46.009497869018190385759 535.24587970140066773
48.009497869018218807469 1516.06782188700390179 48.009497869018218807469 538.38589731645959091
50.009497869018190385759 1530.86205507547333582 50.009497869018190385759 541.18253512866863275
52.009497869018190385759 1544.95835791049353247 52.009497869018190385759 543.71984096779806350
54.009497869018218807469 1558.40984527471437104 54.009497869018218807469 546.03382953851632919
56.009497869018190385759 1571.25859084599778726 56.009497869018190385759 548.14884732754285324
58.009497869018218807469 1583.54126552630350488 58.009497869018218807469 550.14870880899763961
60.009497869018190385759 1595.29405089784950178 60.009497869018190385759 552.16920215502773317
62.009497869018190385759 1606.54742273611486780 62.009497869018190385759 554.14262442910876416
64.009497869018218807469 1617.33317966541017086 64.009497869018218807469 556.06862248036520668
66.009497869018190385759 1627.69379830789807784 66.009497869018190385759 558.14061858998832122
68.009497869018190385759 1637.66597756237206340 68.009497869018190385759 560.25523910630886348
70.009497869018190385759 1647.27188270380429458 70.009497869018190385759 562.07463191696695048
72.009497869018190385759 1656.53454248158527662 72.009497869018190385759 563.56810677630232931
74.009497869018218807469 1665.47528539500058287 74.009497869018218807469 564.97987873296335692
76.009497869018190385759 1674.11125762660230976 76.009497869018190385759 566.31395787451140222
78.009497869018190385759 1682.46441996970111177 78.009497869018190385759 567.81957668733230093
80.009497869018218807469 1690.54839736634085057 80.009497869018218807469 568.93640839614704419
82.009497869018190385759 1698.36310455402553998 82.009497869018190385759 570.20627710117469178
84.009497869018218807469 1705.91234363258763551 84.009497869018218807469 571.31305127525206444
86.009497869018190385759 1713.20234919011636521 86.009497869018190385759 571.93835278394101351
88.009497869018190385759 1720.25068379751269276 88.009497869018190385759 572.69442211764578587
91.009497869018218807469 1730.38634500818920969 91.009497869018218807469 573.58452226769668414
94.009497869018218807469 1740.03236587790047452 94.009497869018218807469 574.87094935141703900
97.009497869018218807469 1749.25479707432214127 97.009497869018218807469 576.87340440234549988
99.504748934509137825444 1756.65067347270746723 99.504748934509137825444 577.28694235640716670
nan nan nan nan

