Time Pressure difference Time.1 Pressure.1 difference.1
(hr) (psi) (hr) (psi)
0.000200000000020850166 0.48699435658308854 0.000200000000020850166 0.39215083883305663
0.000399999999999067768 0.93428335773769200 0.000399999999999067768 0.89845613287862103
0.000600000000019917934 1.35861697650344815 0.000600000000019917934 1.26224579879773113
0.000799999999998135536 1.76576791876611527 0.000799999999998135536 1.61103859414488504
0.001007140329434719206 2.17279529701597607 0.001007140329434719206 1.95817827271622869
0.001267914553977789183 2.66753297201341288 0.001267914553977789183 2.37578130075635308
0.001596209851982166583 3.26686871694457670 0.001596209851982166583 2.87247282586744035
0.002009509145224797066 3.99033383379481377 0.002009509145224797066 3.46028489488930546
0.002529822128153114136 4.86035581413687723 0.002529822128153114136 4.15232640790849228
0.003184857364431081805 5.90250100126708777 0.003184857364431081805 4.96273113282939349
0.004009497869034817086 7.14570304862864969 0.004009497869034817086 5.90659388286248710
0.005047658755856332391 8.62247581675302932 0.005047658755856332391 6.99991024835133846
0.006354625877790454069 10.36911354778305316 0.006354625877790454069 8.25954074987696707
0.008000000000009777068 12.42588650583359389 0.008000000000009777068 9.70322435294300512
0.010071403294361402914 14.83724631910029856 0.010071403294361402914 11.34966758585637514
0.012679145539692626699 17.65206117389461937 0.012679145539692626699 13.21873132351075242
0.015962098519750611558 20.92390508120092107 0.015962098519750611558 15.33172273402136199
0.020095091452091651263 24.71142457259140102 0.020095091452091651263 17.71177498451488930
0.025298221281360611101 29.07879868688124603 0.025298221281360611101 20.38428885292966797
0.031848573644296607199 34.09630321489103011 0.031848573644296607199 23.37747526578462853
0.040094978690191851456 39.84101234425568094 0.040094978690191851456 26.72316915443384744
0.050476587558435426217 46.39772613403373924 0.050476587558435426217 30.45805563591049392
0.063546258777947173257 53.86022043065531051 0.063546258777947173257 34.62489510373967505
0.080000000000012505552 62.33271529644629538 0.080000000000012505552 39.27229499553764924
0.100714032943542974863 71.93098754278608453 0.100714032943542974863 44.45099055162922497
0.126791455396883634421 82.78208308284179395 0.126791455396883634421 50.20553713375630878
0.159620985197506115583 95.02154812311957244 0.159620985197506115583 56.56312706951445080
0.200950914520774404082 108.78792290112896524 0.200950914520774404082 63.52398512026282162
0.252982212813464002465 124.21546608259669142 0.252982212813464002465 71.05894905874997391
0.318485736442809752589 141.42742867464230017 0.318485736442809752589 79.11249892432864783
0.400949786901833249431 160.53004094098574228 0.400949786901833249431 87.62194454231459417
0.504765875584169521062 181.61442474182541673 0.504765875584169521062 96.52866646877669154
0.635462587779443310865 204.75551090265301468 0.635462587779443310865 105.79222792892250027
0.800000000000011368684 230.02008316276754840 0.800000000000011368684 115.40925210159055325
1.007140329435344483500 257.47387228182731178 1.007140329435344483500 125.43690011827719388
1.267914553968907398485 287.19958817512969063 1.267914553968907398485 135.90139692932251592
1.596209851975117999245 319.26148688389292829 1.596209851975117999245 146.98234349348317096
2.009509145207687197399 353.80555868206437253 2.009509145207687197399 158.77724657985189083
2.529822128134725289783 390.91626761332599926 2.529822128134725289783 171.49179226792040254
3.184857364427983839050 430.79876149454941014 3.184857364427983839050 185.40576390118479821
4.009497869018204596614 473.61912173473484700 4.009497869018204596614 200.62334704798826124
5.009497869018190385759 518.00599195183087886 5.009497869018190385759 216.68759345166765229
6.009497869018190385759 556.56352659504693747 6.009497869018190385759 230.80128550836866452
7.009497869018204596614 590.80837249939554567 7.009497869018204596614 243.38883595335306609
8.009497869018190385759 621.69111449412491766 8.009497869018190385759 254.68611716669326483
9.009497869018204596614 649.85337659271078792 9.009497869018204596614 264.90123542821675073
10.009497869018190385759 675.75362824330841249 10.009497869018190385759 274.16826267701895858
11.009497869018190385759 699.73397810310564182 11.009497869018190385759 282.53485738521339954
12.009497869018204596614 722.05873083213123209 12.009497869018204596614 290.18535918935003792
13.009497869018190385759 742.93664237328880517 13.009497869018190385759 297.19883912671747339
14.009497869018204596614 762.53851876315741265 14.009497869018204596614 303.63336599252312453
15.009497869018190385759 781.00215511420196890 15.009497869018190385759 309.55786067701217235
16.009497869018190385759 798.44188310776439721 16.009497869018190385759 315.03226877911521342
17.009497869018204596614 814.95777358560064840 17.009497869018204596614 320.11243404306515004
18.009497869018190385759 830.63645057938060745 18.009497869018190385759 324.85601917380012083
19.009497869018204596614 845.55154429519780024 19.009497869018204596614 329.27783013078021668
20.009497869018190385759 859.76949789193065499 20.009497869018190385759 333.39984697746115216
21.009497869018190385759 873.34474762698891936 21.009497869018190385759 337.24246013033842928
22.009497869018204596614 886.32387524286741609 22.009497869018204596614 340.83914286314353603
23.009497869018190385759 898.74946726464725089 23.009497869018190385759 344.20223380519183820
24.009497869018204596614 910.66088997869951527 24.009497869018204596614 347.36745661257731399
25.009497869018204596614 922.09505299153090618 25.009497869018204596614 350.35145292483946378
26.009497869018190385759 933.08444490416638928 26.009497869018190385759 353.17171805511202365
27.009497869018204596614 943.65870105873648299 27.009497869018204596614 355.84735351502069989
28.009497869018190385759 953.84356001183027729 28.009497869018190385759 358.38468696555827364
29.009497869018190385759 963.66210816704870012 29.009497869018190385759 360.77308587669449480
30.009497869018190385759 973.13576950114736519 30.009497869018190385759 363.06066879511183743
31.009497869018218807469 982.28416922034659819 31.009497869018218807469 365.23103757831739813
32.009497869018190385759 991.12538399769903208 32.009497869018190385759 367.29299191614074971
33.009497869018190385759 999.67614355632576917 33.009497869018190385759 369.24348367259057113
34.009497869018218807469 1007.95253364301424881 34.009497869018218807469 371.12305016654812562
35.009497869018190385759 1015.96888517617094294 35.009497869018190385759 372.91448356942919418
36.009497869018190385759 1023.73844584668859170 36.009497869018190385759 374.64112567515815044
37.009497869018190385759 1031.27348754909326090 37.009497869018190385759 376.30142103667986930
38.009497869018218807469 1038.58569772142300280 38.009497869018218807469 377.90272411274008846
39.009497869018190385759 1045.68576924082617552 39.009497869018190385759 379.45621210962548275
40.009497869018190385759 1052.58371535831224719 40.009497869018190385759 380.95702631371864300
41.009497869018218807469 1059.28915203435212788 41.009497869018218807469 382.40389807412901746
42.009497869018190385759 1065.81088328591795289 42.009497869018190385759 383.79159487586554178
43.009497869018190385759 1072.15718363176301864 43.009497869018190385759 385.14901408682487727
44.009497869018218807469 1078.33605573885643025 44.009497869018218807469 386.42984626897617773
46.009497869018190385759 1090.22135610685791107 46.009497869018190385759 388.88958447054892531
48.009497869018218807469 1101.51802683977643937 48.009497869018218807469 391.17100351899023281
50.009497869018190385759 1112.26696189077370036 50.009497869018190385759 393.20293567942331947
52.009497869018190385759 1122.50880691934298738 52.009497869018190385759 395.04644695316579828
54.009497869018218807469 1132.28215320740969219 54.009497869018218807469 396.72770427407823490
56.009497869018190385759 1141.61756991154516072 56.009497869018190385759 398.26439688641784187
58.009497869018218807469 1150.54170073395494001 58.009497869018218807469 399.71742124403732532
60.009497869018190385759 1159.08083385546888167 60.009497869018190385759 401.18543594076237468
62.009497869018190385759 1167.25711183170824370 62.009497869018190385759 402.61925056177432225
64.009497869018218807469 1175.09363835064937120 64.009497869018218807469 404.01860852089032505
66.009497869018190385759 1182.62127533308239435 66.009497869018190385759 405.52404319428831059
68.009497869018190385759 1189.86668682266099495 68.009497869018190385759 407.06044716317762777
70.009497869018190385759 1196.84597727698292147 70.009497869018190385759 408.38234975217130795
72.009497869018190385759 1203.57587852177698551 72.009497869018190385759 409.46745257965721976
74.009497869018218807469 1210.07188704480495289 74.009497869018218807469 410.49319314191870944
76.009497869018190385759 1216.34646061932812700 76.009497869018190385759 411.46248501819968624
78.009497869018190385759 1222.41555513423600132 78.009497869018190385759 412.55641118688987490
80.009497869018218807469 1228.28906996148202779 80.009497869018218807469 413.36785922532561699
82.009497869018190385759 1233.96694315253421337 82.009497869018190385759 414.29049820632218371
84.009497869018218807469 1239.45193717055190064 84.009497869018218807469 415.09463881717528011
86.009497869018190385759 1244.74858183344395002 86.009497869018190385759 415.54895944458206714
88.009497869018190385759 1249.86963744663012221 88.009497869018190385759 416.09829106985205271
91.009497869018218807469 1257.23382879501241405 91.009497869018218807469 416.74500446012342536
94.009497869018218807469 1264.24226583316203687 94.009497869018218807469 417.67967413813897792
97.009497869018218807469 1270.94293849931204932 97.009497869018218807469 419.13458288607915847
99.504748934509137825444 1276.31650494501400317 99.504748934509137825444 419.43504405582706340
nan nan nan nan

