Time Pressure difference Time.1 Pressure.1 difference.1
(hr) (psi) (hr) (psi)
0.000200000000020850166 0.80492462009739363 0.000200000000020850166 0.64816329122022875
0.000399999999999067768 1.54422256977842776 0.000399999999999067768 1.48500583560275912
0.000600000000019917934 2.24557890432827989 0.000600000000019917934 2.08629259524786281
0.000799999999998135536 2.91853499322940113 0.000799999999998135536 2.66279190061427995
0.001007140329434719206 3.59128685036741935 0.001007140329434719206 3.23655886550332106
0.001267914553977789183 4.40900995067040213 0.001267914553977789183 3.92679059848515477
0.001596209851982166583 5.39961711126323252 0.001596209851982166583 4.74774310389149967
0.002009509145224797066 6.59539048412168949 0.002009509145224797066 5.71930345146066532
0.002529822128153114136 8.03339916437984591 0.002529822128153114136 6.86313857897010404
0.003184857364431081805 9.75590027244759739 0.003184857364431081805 8.20260936854750788
0.004009497869034817086 11.81071655963813605 0.004009497869034817086 9.76266515815673586
0.005047658755856332391 14.25158829312789521 0.005047658755856332391 11.56974412784337858
0.006354625877790454069 17.13850411277199015 0.006354625877790454069 13.65171405048788955
0.008000000000009777068 20.53802439366658561 0.008000000000009777068 16.03789462944189381
0.010071403294361402914 24.52362064416577780 0.010071403294361402914 18.75920479628488380
0.012679145539692626699 29.17606424440954527 0.012679145539692626699 21.84847143486569365
0.015962098519750611558 34.58390455817540499 0.015962098519750611558 25.34091192289859862
0.020095091452091651263 40.84407502320789973 0.020095091452091651263 29.27476172555763867
0.025298221281360611101 48.06265343638129650 0.025298221281360611101 33.69200430991140394
0.031848573644296607199 56.35579456101804396 0.031848573644296607199 38.63926787401575069
0.040094978690191851456 65.85088983474517477 0.040094978690191851456 44.16917052253581488
0.050476587558435426217 76.68810033828002304 0.050476587558435426217 50.34234694967695134
0.063546258777947173257 89.02242270873290408 0.063546258777947173257 57.22947332046680202
0.080000000000012505552 103.02611621962552135 0.080000000000012505552 64.91089003870739305
0.100714032943542974863 118.89054162217792054 0.100714032943542974863 73.47045442942095406
0.126791455396883634421 136.82568570988905776 0.126791455396883634421 82.98180945610107528
0.159620985197506115583 157.05558491624680073 0.159620985197506115583 93.48989973394401432
0.200950914520774404082 179.80922433427767260 0.200950914520774404082 104.99509675791520635
0.252982212813464002465 205.30851229627347720 0.252982212813464002465 117.44919998036093034
0.318485736442809752589 233.75716321645947460 0.318485736442809752589 130.76044369059542305
0.400949786901833249431 265.33075891321141171 0.400949786901833249431 144.82521094858756783
0.504765875584169521062 300.17990940430746605 0.504765875584169521062 159.54661308817776444
0.635462587779443310865 338.42846348887042041 0.635462587779443310865 174.85781451846483492
0.800000000000011368684 380.18680412156351167 0.800000000000011368684 190.75323388834320326
1.007140329435344483500 425.56357384830442925 1.007140329435344483500 207.32734950424926978
1.267914553968907398485 474.69547907287176258 1.267914553968907398485 224.62350705983260468
1.596209851975117999245 527.68872486492898588 1.596209851975117999245 242.93855852379093108
2.009509145207687197399 584.78461004900339049 2.009509145207687197399 262.43366715809622747
2.529822128134725289783 646.12274032555876602 2.529822128134725289783 283.44879950888224585
3.184857364427983839050 712.04219257778049723 3.184857364427983839050 306.44639317615184382
4.009497869018204596614 782.81747309765694354 4.009497869018204596614 331.59865042033084137
5.009497869018190385759 856.18194675909364832 5.009497869018190385759 358.15030807065193130
6.009497869018190385759 919.91145102345706164 6.009497869018190385759 381.47800799847107101
7.009497869018204596614 976.51276314800247746 7.009497869018204596614 402.28323730538846803
8.009497869018190385759 1027.55704945572733777 8.009497869018190385759 420.95585571637781186
9.009497869018204596614 1074.10481292435770229 9.009497869018204596614 437.83982998580836465
10.009497869018190385759 1116.91383101351743790 10.009497869018190385759 453.15675981639390102
11.009497869018190385759 1156.54955520574753791 11.009497869018190385759 466.98541712210385413
12.009497869018204596614 1193.44883928628746617 12.009497869018204596614 479.63048615628360949
13.009497869018190385759 1227.95672379978282152 13.009497869018190385759 491.22265883309978562
14.009497869018204596614 1260.35552410008813240 14.009497869018204596614 501.85791368349447339
15.009497869018190385759 1290.87299370642290341 15.009497869018190385759 511.65016603450868615
16.009497869018190385759 1319.69810479870125164 16.009497869018190385759 520.69849647669423121
17.009497869018204596614 1346.99625864532458763 17.009497869018204596614 529.09520588377597505
18.009497869018190385759 1372.91063106515139225 18.009497869018190385759 536.93560158373099966
19.009497869018204596614 1397.56292113922108911 19.009497869018204596614 544.24415548497620421
20.009497869018190385759 1421.06294889664741277 20.009497869018190385759 551.05719715475913745
21.009497869018190385759 1443.50068885812606823 21.009497869018190385759 557.40842872541338693
22.009497869018204596614 1464.95313327392545943 22.009497869018204596614 563.35317622233867496
23.009497869018190385759 1485.49067093204348566 23.009497869018190385759 568.91183344759826923
24.009497869018204596614 1505.17836807539265465 24.009497869018204596614 574.14344595258558002
25.009497869018204596614 1524.07723044375916288 25.009497869018204596614 579.07551973445049498
26.009497869018190385759 1542.24095655435166918 26.009497869018190385759 583.73697177772749001
27.009497869018204596614 1559.71852893886421043 27.009497869018204596614 588.15937385892823386
28.009497869018190385759 1576.55248935903136953 28.009497869018190385759 592.35318460052349110
29.009497869018190385759 1592.78099598731864717 29.009497869018190385759 596.30083011263172921
30.009497869018190385759 1608.43945926764126853 30.009497869018190385759 600.08184273969322930
31.009497869018218807469 1623.56031656081859182 31.009497869018218807469 603.66911894665054206
32.009497869018190385759 1638.17344574734897833 32.009497869018190385759 607.07720322852139816
33.009497869018190385759 1652.30649841260628818 33.009497869018190385759 610.30105749878259758
34.009497869018218807469 1665.98606175097302184 34.009497869018218807469 613.40768353180624217
35.009497869018190385759 1679.23582250316417230 35.009497869018190385759 616.36863950953284075
36.009497869018190385759 1692.07767700620115647 36.009497869018190385759 619.22250572422456116
37.009497869018190385759 1704.53190876009875865 37.009497869018190385759 621.96671126799924423
38.009497869018218807469 1716.61783525076975820 38.009497869018218807469 624.61341189755512460
39.009497869018190385759 1728.35313011233347424 39.009497869018190385759 627.18108176644705054
40.009497869018190385759 1739.75434366443005274 40.009497869018190385759 629.66169018980224337
41.009497869018218807469 1750.83736956829898190 41.009497869018218807469 632.05314028842212792
42.009497869018190385759 1761.61675947104095030 42.009497869018190385759 634.34678354290520019
43.009497869018190385759 1772.10618984297548195 43.009497869018190385759 636.59038273029739230
44.009497869018218807469 1782.31888782643545710 44.009497869018218807469 638.70739567652594815
46.009497869018190385759 1801.96340886479129040 46.009497869018190385759 642.77295374855702903
48.009497869018218807469 1820.63501824823265451 48.009497869018218807469 646.54377847378418664
50.009497869018190385759 1838.40130721117111534 50.009497869018190385759 649.90224084648150438
52.009497869018190385759 1855.32945659786946635 52.009497869018190385759 652.94927330507903207
54.009497869018218807469 1871.48325169150984948 54.009497869018218807469 655.72812565116453243
56.009497869018190385759 1886.91321847130984679 56.009497869018190385759 658.26803540673677162
58.009497869018218807469 1901.66339476149846632 58.009497869018218807469 660.66965477509086213
60.009497869018190385759 1915.77723076572101490 60.009497869018190385759 663.09605080224309859
62.009497869018190385759 1929.29132462506640877 62.009497869018190385759 665.46591951531365794
64.009497869018218807469 1942.24386308033626847 64.009497869018218807469 667.77883681793855430
66.009497869018190385759 1954.68585600368123778 66.009497869018190385759 670.26708214601262625
68.009497869018190385759 1966.66137484052705986 68.009497869018190385759 672.80651481962991056
70.009497869018190385759 1978.19703771126523861 70.009497869018190385759 674.99141065028618414
72.009497869018190385759 1989.32049967654666034 72.009497869018190385759 676.78491394118452718
74.009497869018218807469 2000.05737397881762263 74.009497869018218807469 678.48030079985323937
76.009497869018190385759 2010.42825134623217309 76.009497869018190385759 680.08238691180167734
78.009497869018190385759 2020.45950433861435158 78.009497869018190385759 681.89047378969826241
80.009497869018218807469 2030.16749505154325561 80.009497869018218807469 683.23166901144440999
82.009497869018190385759 2039.55212109389685793 82.009497869018190385759 684.75664526882133032
84.009497869018218807469 2048.61794838020568932 84.009497869018218807469 686.08576246894097039
86.009497869018190385759 2057.37246398277375192 86.009497869018190385759 686.83668258428622266
88.009497869018190385759 2065.83675866754902017 88.009497869018190385759 687.74464084663725316
91.009497869018218807469 2078.00860181787038528 91.009497869018218807469 688.81355575897509880
94.009497869018218807469 2089.59243938015742970 94.009497869018218807469 690.35841685504999532
97.009497869018218807469 2100.66759112943145738 97.009497869018218807469 692.76315082245957910
99.504748934509137825444 2109.54924626856382019 99.504748934509137825444 693.25976559764967533
nan nan nan nan

