Time Pressure difference Time.1 Pressure.1 difference.1
(hr) (psi) (hr) (psi)
0.000200000000020850166 0.20721572469050004 0.000200000000020850166 0.16685988073234514
0.000399999999999067768 0.39753685114184434 0.000399999999999067768 0.38229239448137947
0.000600000000019917934 0.57809048001759622 0.000600000000019917934 0.53708461792161510
0.000799999999998135536 0.75133289323842389 0.000799999999998135536 0.68549568445181741
0.001007140329434719206 0.92452273006670549 0.001007140329434719206 0.83320335106358734
0.001267914553977789183 1.13503323079526153 0.001267914553977789183 1.01089311875500742
0.001596209851982166583 1.39005012994415922 0.001596209851982166583 1.22223498120626872
0.002009509145224797066 1.69788398150716358 0.002009509145224797066 1.47234856510650958
0.002529822128153114136 2.06807766592306441 0.002529822128153114136 1.76681169737427402
0.003184857364431081805 2.51150964262823839 0.003184857364431081805 2.11163828539745335
0.004009497869034817086 3.04049115894030075 0.004009497869034817086 2.51325116060354681
0.005047658755856332391 3.66885683754314762 0.005047658755856332391 2.97845643439834173
0.006354625877790454069 4.41204985059278876 0.006354625877790454069 3.51442824533935427
0.008000000000009777068 5.28720516454056177 0.008000000000009777068 4.12871450962398168
0.010071403294361402914 6.31323691304267687 0.010071403294361402914 4.82927484067928781
0.012679145539692626699 7.51093847184149066 0.012679145539692626699 5.62456002551839962
0.015962098519750611558 8.90310554146337196 0.015962098519750611558 6.52363624780939766
0.020095091452091651263 10.51469217604887518 0.020095091452091651263 7.53634665239727308
0.025298221281360611101 12.37300650732120744 0.025298221281360611101 8.67349925078574202
0.031848573644296607199 14.50795083029925614 0.031848573644296607199 9.94709777054123023
0.040094978690191851456 16.95232015262492098 0.040094978690191851456 11.37068795050411119
0.050476587558435426217 19.74219683429699757 0.050476587558435426217 12.95987927979601828
0.063546258777947173257 22.91748242594703555 0.063546258777947173257 14.73286627301979834
0.080000000000012505552 26.52252248404857582 0.080000000000012505552 16.71033135754828081
0.100714032943542974863 30.60657995292126898 0.100714032943542974863 18.91386233917249626
0.126791455396883634421 35.22371277104021203 0.126791455396883634421 21.36241749009293045
0.159620985197506115583 40.43159574516762689 0.159620985197506115583 24.06756712481643845
0.200950914520774404082 46.28917763995810475 0.200950914520774404082 27.02940687912872875
0.252982212813464002465 52.85358541456110970 0.252982212813464002465 30.23552824773232217
0.318485736442809752589 60.17726227784319093 0.318485736442809752589 33.66230753001388365
0.400949786901833249431 68.30540912542710430 0.400949786901833249431 37.28307010479439043
0.504765875584169521062 77.27679823884123778 0.504765875584169521062 41.07287344370375592
0.635462587779443310865 87.12331262678169708 0.635462587779443310865 45.01451173012524265
0.800000000000011368684 97.87336871902705582 0.800000000000011368684 49.10654812924821044
1.007140329435344483500 109.55493490332744955 1.007140329435344483500 53.37330465862179096
1.267914553968907398485 122.20320418511661842 1.267914553968907398485 57.82594001447363041
1.596209851975117999245 135.84551746058116350 1.596209851975117999245 62.54087426681234518
2.009509145207687197399 150.54399347915793328 2.009509145207687197399 67.55959647099689391
2.529822128134725289783 166.33457162656114292 2.529822128134725289783 72.96962589587396053
3.184857364427983839050 183.30454214130597279 3.184857364427983839050 78.89001013921381400
4.009497869018204596614 201.52457253536334747 4.009497869018204596614 85.36508008032680550
5.009497869018190385759 220.41115172143955192 5.009497869018190385759 92.20040458696151120
6.009497869018190385759 236.81735309804608391 6.009497869018190385759 98.20576971707852465
7.009497869018204596614 251.38850872862141728 7.009497869018204596614 103.56176276356190158
8.009497869018190385759 264.52909172791493120 8.009497869018190385759 108.36874724297085493
9.009497869018204596614 276.51211262086161469 9.009497869018204596614 112.71527221753616743
10.009497869018190385759 287.53264980552449970 10.009497869018190385759 116.65838519436906040
11.009497869018190385759 297.73627025278074143 11.009497869018190385759 120.21836481674978359
12.009497869018204596614 307.23543539247367562 12.009497869018204596614 123.47364745844846823
13.009497869018190385759 316.11897071797386616 13.009497869018190385759 126.45787778510097610
14.009497869018204596614 324.45955406665842702 14.009497869018204596614 129.19576402446836028
15.009497869018190385759 332.31581715304753288 15.009497869018190385759 131.71663196241533456
16.009497869018190385759 339.73640801973999714 16.009497869018190385759 134.04598840524565162
17.009497869018204596614 346.76390673304359780 17.009497869018204596614 136.20759482323970246
18.009497869018190385759 353.43517175190237367 18.009497869018190385759 138.22598665306085763
19.009497869018204596614 359.78153267245744473 19.009497869018204596614 140.10746381908774083
20.009497869018190385759 365.83126100778002865 20.009497869018190385759 141.86137882143893307
21.009497869018190385759 371.60751934358825110 21.009497869018190385759 143.49640776667240516
22.009497869018204596614 377.13012817553652667 22.009497869018204596614 145.02679350705184902
23.009497869018190385759 382.41720803733835510 23.009497869018190385759 146.45778611987427098
24.009497869018204596614 387.48550925360950714 24.009497869018204596614 147.80458599337006831
25.009497869018204596614 392.35073683356995389 25.009497869018204596614 149.07427413238178815
26.009497869018190385759 397.02671465200319290 26.009497869018190385759 150.27429477921049283
27.009497869018204596614 401.52605252422426929 27.009497869018204596614 151.41277561238209159
28.009497869018190385759 405.85970218629336159 28.009497869018190385759 152.49240904678902098
29.009497869018190385759 410.03748688521125132 29.009497869018190385759 153.50867094906971033
30.009497869018190385759 414.06852250663257564 30.009497869018190385759 154.48203572388013072
31.009497869018218807469 417.96115956073117559 31.009497869018218807469 155.40552597418422920
32.009497869018190385759 421.72308965800715441 32.009497869018190385759 156.28288596124573928
33.009497869018190385759 425.36143128279917391 33.009497869018190385759 157.11281870554162765
34.009497869018218807469 428.88302890801065814 34.009497869018218807469 157.91257280512110128
35.009497869018190385759 432.29398032841675104 35.009497869018190385759 158.67482634213808979
36.009497869018190385759 435.59992242631761883 36.009497869018190385759 159.40951123197970674
37.009497869018190385759 438.80607688340836603 37.009497869018190385759 160.11596563311877617
38.009497869018218807469 441.91741669559780803 38.009497869018218807469 160.79731886210294078
39.009497869018190385759 444.93849167389993227 39.009497869018190385759 161.45832681162252698
40.009497869018190385759 447.87356244892856694 40.009497869018190385759 162.09692210276506330
41.009497869018218807469 450.72672060447848708 41.009497869018218807469 162.71256492555107798
42.009497869018190385759 453.50171224300964923 42.009497869018190385759 163.30302884887061055
43.009497869018190385759 456.20205816589606229 43.009497869018190385759 163.88060968056910838
44.009497869018218807469 458.83116350178681841 44.009497869018218807469 164.42560279033241954
46.009497869018190385759 463.88834967987656910 46.009497869018190385759 165.47221950590176220
48.009497869018218807469 468.69507440033493140 48.009497869018218807469 166.44296155877157162
50.009497869018190385759 473.26873800882384558 50.009497869018190385759 167.30754713241208265
52.009497869018190385759 477.62663520223964042 52.009497869018190385759 168.09195976348223667
54.009497869018218807469 481.78518654140168564 54.009497869018218807469 168.80733346224218394
56.009497869018190385759 485.75739917895248254 56.009497869018190385759 169.46119498853724394
58.009497869018218807469 489.55460998971659592 58.009497869018218807469 170.07945573671020156
60.009497869018190385759 493.18800457444677932 60.009497869018190385759 170.70409486265924670
62.009497869018190385759 496.66700457355335629 62.009497869018190385759 171.31418188265973868
64.009497869018218807469 500.00144058852521312 64.009497869018218807469 171.90960761948790037
66.009497869018190385759 503.20444434295512792 66.009497869018190385759 172.55016891677092872
68.009497869018190385759 506.28736136693862591 68.009497869018190385759 173.20390762549951091
70.009497869018190385759 509.25704409481454604 70.009497869018190385759 173.76637616183018054
72.009497869018190385759 512.12061190557938062 72.009497869018190385759 174.22808658151313921
74.009497869018218807469 514.88465854287414913 74.009497869018218807469 174.66453840293621624
76.009497869018190385759 517.55448477965262555 76.009497869018190385759 175.07697135182996817
78.009497869018190385759 520.13687983438296669 78.009497869018190385759 175.54243609641858370
80.009497869018218807469 522.63605588222810638 80.009497869018218807469 175.88770661354101321
82.009497869018190385759 525.05198656413506342 82.009497869018190385759 176.28028879132295970
84.009497869018218807469 527.38584730605668938 84.009497869018218807469 176.62245000362145220
86.009497869018190385759 529.63956554203366522 86.009497869018190385759 176.81576308164247280
88.009497869018190385759 531.81857077222218777 88.009497869018190385759 177.04950326628113544
91.009497869018218807469 534.95202853489786321 91.009497869018218807469 177.32467931713392773
94.009497869018218807469 537.93411311180625489 94.009497869018218807469 177.72238054725730194
97.009497869018218807469 540.78524418480708391 97.009497869018218807469 178.34144310206440309
99.504748934509137825444 543.07169258029011871 99.504748934509137825444 178.46928909902320015
nan nan nan nan

