Time Pressure difference Time.1 Pressure.1 difference.1
(hr) (psi) (hr) (psi)
0.000200000000020850166 0.04563234370440614 0.000200000000020850166 0.03674531669557059
0.000399999999999067768 0.08754421631643503 0.000399999999999067768 0.08418713380275865
0.000600000000019917934 0.12730512375838765 0.000600000000019917934 0.11827495196107771
0.000799999999998135536 0.16545598009943630 0.000799999999998135536 0.15095753339913667
0.001007140329434719206 0.20359525824573660 0.001007140329434719206 0.18348521449414740
0.001267914553977789183 0.24995316634841502 0.001267914553977789183 0.22261545214460451
0.001596209851982166583 0.30611212247867770 0.001596209851982166583 0.26915643990462962
0.002009509145224797066 0.37390224863515154 0.002009509145224797066 0.32423560459024214
0.002529822128153114136 0.45542504556428492 0.002529822128153114136 0.38908127631707834
0.003184857364431081805 0.55307613068708505 0.003184857364431081805 0.46501781736189401
0.004009497869034817086 0.66956664510959696 0.004009497869034817086 0.55345964186576291
0.005047658755856332391 0.80794320249145124 0.005047658755856332391 0.65590556858591653
0.006354625877790454069 0.97160664579841194 0.006354625877790454069 0.77393546197003837
0.008000000000009777068 1.16433037919485294 0.008000000000009777068 0.90921149850925231
0.010071403294361402914 1.39027960900939807 0.010071403294361402914 1.06348651726150378
0.012679145539692626699 1.65403338188567117 0.012679145539692626699 1.23862152186506269
0.015962098519750611558 1.96061168963633836 0.015962098519750611558 1.43661303652120287
0.020095091452091651263 2.31550982938260441 0.020095091452091651263 1.65962868518495910
0.025298221281360611101 2.72474150522235981 0.025298221281360611101 1.91004857147267249
0.031848573644296607199 3.19489169909117177 0.031848573644296607199 2.19051611553435066
0.040094978690191851456 3.73318241628202196 0.040094978690191851456 2.50401431400993024
0.050476587558435426217 4.34755959166829165 0.050476587558435426217 2.85398063562294979
0.063546258777947173257 5.04681020932407698 0.063546258777947173257 3.24442181463612878
0.080000000000012505552 5.84069989720925342 0.080000000000012505552 3.67989246501965717
0.100714032943542974863 6.74007717374800475 0.100714032943542974863 4.16514658010657790
0.126791455396883634421 7.75684649470560572 0.126791455396883634421 4.70435908626595278
0.159620985197506115583 8.90370881030767158 0.159620985197506115583 5.30007795889459477
0.200950914520774404082 10.19364561746369624 0.200950914520774404082 5.95232425858069547
0.252982212813464002465 11.63923722125714022 0.252982212813464002465 6.65836542639592643
0.318485736442809752589 13.25203248717846449 0.318485736442809752589 7.41299913115829145
0.400949786901833249431 15.04198540307239362 0.400949786901833249431 8.21035117831211991
0.504765875584169521062 17.01763426920330247 0.504765875584169521062 9.04492880890227013
0.635462587779443310865 19.18600025355119953 0.635462587779443310865 9.91294301638137121
0.800000000000011368684 21.55334112585072148 0.800000000000011368684 10.81407738586332279
1.007140329435344483500 24.12581598954142237 1.007140329435344483500 11.75368802951598823
1.267914553968907398485 26.91117492885239670 1.267914553968907398485 12.73423227755556653
1.596209851975117999245 29.91543886316047463 1.596209851975117999245 13.77253909846770163
2.009509145207687197399 33.15228737266654946 2.009509145207687197399 14.87774507123036116
2.529822128134725289783 36.62963490693223179 2.529822128134725289783 16.06912339223217501
3.184857364427983839050 40.36670422606376718 3.184857364427983839050 17.37289031946585638
4.009497869018204596614 44.37905748973705755 4.009497869018204596614 18.79880824873622913
5.009497869018190385759 48.53819586645418838 5.009497869018190385759 20.30406021590127352
6.009497869018190385759 52.15111385913650111 6.009497869018190385759 21.62654134563823405
7.009497869018204596614 55.35992430485887184 7.009497869018204596614 22.80601995876272881
8.009497869018190385759 58.25369890037115539 8.009497869018190385759 23.86459776830766444
9.009497869018204596614 60.89255909701284963 9.009497869018204596614 24.82177474826608332
10.009497869018190385759 63.31946439760647394 10.009497869018190385759 25.69011370706321884
11.009497869018190385759 65.56647106649684531 11.009497869018190385759 26.47408033870663147
12.009497869018204596614 67.65834497812596737 12.009497869018204596614 27.19094763525399827
13.009497869018190385759 69.61464698121446304 13.009497869018190385759 27.84812471079840890
14.009497869018204596614 71.45138194247712704 14.009497869018204596614 28.45105272741000135
15.009497869018190385759 73.18146153911877150 15.009497869018190385759 29.00618971013478031
16.009497869018190385759 74.81559887799329545 16.009497869018190385759 29.51915268129958037
17.009497869018204596614 76.36317079680742381 17.009497869018204596614 29.99517431125495648
18.009497869018190385759 77.83229414031062277 18.009497869018190385759 30.43965771060184977
19.009497869018204596614 79.22986820584802103 19.009497869018204596614 30.85399022730812746
20.009497869018190385759 80.56211885008875129 20.009497869018190385759 31.24023143721218077
21.009497869018190385759 81.83414685905734132 21.009497869018190385759 31.60029196305782051
22.009497869018204596614 83.05031703504594986 22.009497869018204596614 31.93730831743741305
23.009497869018190385759 84.21461982049690675 23.009497869018190385759 32.25243665455715103
24.009497869018204596614 85.33074391505479639 24.009497869018204596614 32.54902435233059066
25.009497869018204596614 86.40214782255510784 25.009497869018204596614 32.82863076561476134
26.009497869018190385759 87.43187578979130592 26.009497869018190385759 33.09289524018714701
27.009497869018204596614 88.42270470750065670 27.009497869018204596614 33.34360762583143867
28.009497869018190385759 89.37704632983356134 28.009497869018190385759 33.58136083701852215
29.009497869018190385759 90.29706389890932883 29.009497869018190385759 33.80515858445216537
30.009497869018190385759 91.18476488413207903 30.009497869018190385759 34.01950967204580678
31.009497869018218807469 92.04198820651480162 31.009497869018218807469 34.22287756110193868
32.009497869018190385759 92.87042768642034218 32.009497869018190385759 34.41608680012993204
33.009497869018190385759 93.67165093231317030 33.009497869018190385759 34.59885177270050605
34.009497869018218807469 94.44716521078936466 34.009497869018218807469 34.77497090654291867
35.009497869018190385759 95.19831335752138557 35.009497869018190385759 34.94283179375603510
36.009497869018190385759 95.92633670760062614 36.009497869018190385759 35.10462160704246060
37.009497869018190385759 96.63238516205021256 37.009497869018190385759 35.26019459790702371
38.009497869018218807469 97.31755385715331386 38.009497869018218807469 35.41023989382050274
39.009497869018190385759 97.98284473685160378 39.009497869018190385759 35.55580482133203191
40.009497869018190385759 98.62919606276044249 40.009497869018190385759 35.69643410927317717
41.009497869018218807469 99.25750886957828811 41.009497869018218807469 35.83200888252207506
42.009497869018190385759 99.86860811127647253 42.009497869018190385759 35.96203884397510819
43.009497869018190385759 100.46326912678578935 43.009497869018190385759 36.08923173471016810
44.009497869018218807469 101.04224178198192874 44.009497869018218807469 36.20924826790714235
46.009497869018190385759 102.15591816055044205 46.009497869018190385759 36.43973064931410732
48.009497869018218807469 103.21443876686076635 48.009497869018218807469 36.65350416998218464
50.009497869018190385759 104.22163544598646467 50.009497869018190385759 36.84390027103659548
52.009497869018190385759 105.18131677738851693 52.009497869018190385759 37.01664095874518523
54.009497869018218807469 106.09709884124731616 54.009497869018218807469 37.17417812706416669
56.009497869018190385759 106.97184602857797131 56.009497869018190385759 37.31816929350459588
58.009497869018218807469 107.80805490748271325 58.009497869018218807469 37.45432057739827059
60.009497869018190385759 108.60818873300091525 60.009497869018190385759 37.59187648600077836
62.009497869018190385759 109.37432230681137924 62.009497869018190385759 37.72622777921387893
64.009497869018218807469 110.10862049061385903 64.009497869018218807469 37.85735041439986048
66.009497869018190385759 110.81397510801539852 66.009497869018190385759 37.99841264954160636
68.009497869018190385759 111.49288463315254205 68.009497869018190385759 38.14237676951433542
70.009497869018190385759 112.14685808586169458 70.009497869018190385759 38.26624168184707742
72.009497869018190385759 112.77746327162579121 72.009497869018190385759 38.36791798365452166
74.009497869018218807469 113.38615224229357636 74.009497869018218807469 38.46403192266826210
76.009497869018190385759 113.97409231609680091 76.009497869018190385759 38.55485650708169487
78.009497869018190385759 114.54277859168723808 78.009497869018190385759 38.65735957357954078
80.009497869018218807469 115.09313865998527149 80.009497869018218807469 38.73339387518412025
82.009497869018190385759 115.62516671628968368 82.009497869018190385759 38.81984699014693518
84.009497869018218807469 116.13912160891500491 84.009497869018218807469 38.89519657119461016
86.009497869018190385759 116.63542779084498591 86.009497869018190385759 38.93776732122812234
88.009497869018190385759 117.11528092817887625 88.009497869018190385759 38.98924079149151112
91.009497869018218807469 117.80532036328074241 91.009497869018218807469 39.04983912759988840
94.009497869018218807469 118.46202490909814742 94.009497869018218807469 39.13741954289781688
97.009497869018218807469 119.08989131867593869 97.009497869018218807469 39.27374739792754355
99.504748934509137825444 119.59340522526245820 99.504748934509137825444 39.30190120953218269
nan nan nan nan

