Time Pressure difference Time.1 Pressure.1 difference.1
(hr) (psi) (hr) (psi)
0.000200000000020850166 0.17804094756801084 0.000200000000020850166 0.14336697333681642
0.000399999999999067768 0.34156595874281209 0.000399999999999067768 0.32846783352551739
0.000600000000019917934 0.49669867958190578 0.000600000000019917934 0.46146620601207372
0.000799999999998135536 0.64554956169944000 0.000799999999998135536 0.58898185162286110
0.001007140329434719206 0.79435526987680838 0.001007140329434719206 0.71589313196077187
0.001267914553977789183 0.97522710804791435 0.001267914553977789183 0.86856520672812909
0.001596209851982166583 1.19433910081844741 0.001596209851982166583 1.05015135569347273
0.002009509145224797066 1.45883172418305040 0.002009509145224797066 1.26505039167996114
0.002529822128153114136 1.77690427613606250 0.002529822128153114136 1.51805481579450241
0.003184857364431081805 2.15790359186108605 0.003184857364431081805 1.81433181200214388
0.004009497869034817086 2.61240756616531300 0.004009497869034817086 2.15939991416478039
0.005047658755856332391 3.15230298676992460 0.005047658755856332391 2.55910697251554309
0.006354625877790454069 3.79085871639380434 0.006354625877790454069 3.01961704834211675
0.008000000000009777068 4.54279721718647522 0.008000000000009777068 3.54741535483937831
0.010071403294361402914 5.42436962203666884 0.010071403294361402914 4.14934083783996499
0.012679145539692626699 6.45344171948835577 0.012679145539692626699 4.83265446235876972
0.015962098519750611558 7.64959970710571291 0.015962098519750611558 5.60514594577125091
0.020095091452091651263 9.03428425234524290 0.020095091452091651263 6.47527257498393904
0.025298221281360611101 10.63095865972002585 0.025298221281360611101 7.45232065590977122
0.031848573644296607199 12.46531515383112954 0.031848573644296607199 8.54660386060943367
0.040094978690191851456 14.56553139467411917 0.040094978690191851456 9.76976076613710553
0.050476587558435426217 16.96260955437792362 0.050476587558435426217 11.13520313570921338
0.063546258777947173257 19.69083327572344899 0.063546258777947173257 12.65856380136719039
0.080000000000012505552 22.78830451698036441 0.080000000000012505552 14.35761322417505603
0.100714032943542974863 26.29735028445943001 0.100714032943542974863 16.25089977156337184
0.126791455396883634421 30.26441747114646219 0.126791455396883634421 18.35471250051305958
0.159620985197506115583 34.73906060415124841 0.159620985197506115583 20.67899269208055202
0.200950914520774404082 39.77192880256327356 0.200950914520774404082 23.22382251708533474
0.252982212813464002465 45.41210587965900203 0.252982212813464002465 25.97854051610213943
0.318485736442809752589 51.70465134341761626 0.318485736442809752589 28.92284906910939668
0.400949786901833249431 58.68840206444638596 0.400949786901833249431 32.03382918751286468
0.504765875584169521062 66.39667141098993852 0.504765875584169521062 35.29005010686459087
0.635462587779443310865 74.85685344828173982 0.635462587779443310865 38.67672849014370939
0.800000000000011368684 84.09336373692576672 0.800000000000011368684 42.19262980058148571
1.007140329435344483500 94.13023287722718635 1.007140329435344483500 45.85865165614435313
1.267914553968907398485 104.99769890273557849 1.267914553968907398485 49.68438167308565312
1.596209851975117999245 116.71925326938021783 1.596209851975117999245 53.73548041697234368
2.009509145207687197399 129.34826876548589780 2.009509145207687197399 58.04759552381681686
2.529822128134725289783 142.91562471885038121 2.529822128134725289783 62.69592405493864362
3.184857364427983839050 157.49632140660946789 3.184857364427983839050 67.78275239398153929
4.009497869018204596614 173.15107676323640362 4.009497869018204596614 73.34616988851183805
5.009497869018190385759 189.37853469206717705 5.009497869018190385759 79.21912018663118715
6.009497869018190385759 203.47483767990962633 6.009497869018190385759 84.37896459445735786
7.009497869018204596614 215.99445876321988180 7.009497869018204596614 88.98086475713982679
8.009497869018190385759 227.28492357849731320 8.009497869018190385759 93.11105358782333496
9.009497869018204596614 237.58080434572224249 9.009497869018204596614 96.84561295225128674
10.009497869018190385759 247.04971355131706900 10.009497869018190385759 100.23355839804995071
11.009497869018190385759 255.81672317747947432 11.009497869018190385759 103.29231345265866082
12.009497869018204596614 263.97846073432754110 12.009497869018204596614 106.08927110148280804
13.009497869018190385759 271.61124559883677421 13.009497869018190385759 108.65333903557410622
14.009497869018204596614 278.77752298868125536 14.009497869018204596614 111.00574670694393831
15.009497869018190385759 285.52766961164371651 15.009497869018190385759 113.17169100019799544
16.009497869018190385759 291.90348414692459755 16.009497869018190385759 115.17308751064426531
17.009497869018204596614 297.94155163344538551 17.009497869018204596614 117.03035223079801597
18.009497869018190385759 303.67354107203163949 18.009497869018190385759 118.76456614956133251
19.009497869018204596614 309.12637103265296901 19.009497869018204596614 120.38114219834974961
20.009497869018190385759 314.32433256264135935 20.009497869018190385759 121.88811609928687574
21.009497869018190385759 319.28732708943687157 21.009497869018190385759 123.29294241324201664
22.009497869018204596614 324.03238449739239968 22.009497869018204596614 124.60785868114923858
23.009497869018190385759 328.57507405374201426 23.009497869018190385759 125.83737579974757637
24.009497869018204596614 332.92978773414819216 24.009497869018204596614 126.99455403040461476
25.009497869018204596614 337.11001937324783739 25.009497869018204596614 128.08547741338219339
26.009497869018190385759 341.12764652410385224 26.009497869018190385759 129.11654208466461569
27.009497869018204596614 344.99350361287139322 27.009497869018204596614 130.09473139258821561
28.009497869018190385759 348.71700043443257755 28.009497869018190385759 131.02235867558047744
29.009497869018190385759 352.30657717935116580 29.009497869018190385759 131.89553677212487059
30.009497869018190385759 355.77006626923662225 30.009497869018190385759 132.73185740896562379
31.009497869018218807469 359.11464251066428233 31.009497869018218807469 133.52532556626658788
32.009497869018190385759 362.34691457980397900 32.009497869018190385759 134.27915833493315745
33.009497869018190385759 365.47299871951696559 33.009497869018190385759 134.99224134266754049
34.009497869018218807469 368.49877574045683559 34.009497869018218807469 135.67939468454449070
35.009497869018190385759 371.42948490311624710 35.009497869018190385759 136.33432732645798069
36.009497869018190385759 374.26996944932704992 36.009497869018190385759 136.96557282747716044
37.009497869018190385759 377.02471587816313559 37.009497869018190385759 137.57256252953888520
38.009497869018218807469 379.69799701643421486 38.009497869018218807469 138.15798515949637704
39.009497869018190385759 382.29372208804397815 39.009497869018190385759 138.72592700782007569
40.009497869018190385759 384.81555185142599385 40.009497869018190385759 139.27461177060681052
41.009497869018218807469 387.26700181901043152 41.009497869018218807469 139.80357564000416914
42.009497869018190385759 389.65129066366893085 42.009497869018190385759 140.31090565354224964
43.009497869018190385759 391.97144347827895672 43.009497869018190385759 140.80716644034458795
44.009497869018218807469 394.23038596904422093 44.009497869018218807469 141.27542766822784870
46.009497869018190385759 398.57554954444270834 46.009497869018190385759 142.17468679568455059
48.009497869018218807469 402.70551518873543273 48.009497869018218807469 143.00875397468459482
50.009497869018190385759 406.63523337942262970 50.009497869018190385759 143.75161089355262334
52.009497869018190385759 410.37956381997486233 52.009497869018190385759 144.42558275707136772
54.009497869018218807469 413.95261515109604034 54.009497869018218807469 145.04023597116838573
56.009497869018190385759 417.36556319346817645 56.009497869018190385759 145.60203757137858815
58.009497869018218807469 420.62814865542429743 58.009497869018218807469 146.13325077738997493
60.009497869018190385759 423.74998226974122417 60.009497869018190385759 146.66994432242924518
62.009497869018190385759 426.73915916428046557 62.009497869018190385759 147.19413461398204390
64.009497869018218807469 429.60412584862456242 64.009497869018218807469 147.70572784634700270
66.009497869018190385759 432.35616517553546601 66.009497869018190385759 148.25610181296562473
68.009497869018190385759 435.00502529000505092 68.009497869018190385759 148.81779788761329542
70.009497869018190385759 437.55659384319801575 70.009497869018190385759 149.30107410294434089
72.009497869018190385759 440.01698784667109976 72.009497869018190385759 149.69777836245532399
74.009497869018218807469 442.39187268304698364 74.009497869018218807469 150.07278028844336859
76.009497869018190385759 444.68580280706623853 76.009497869018190385759 150.42714506041710365
78.009497869018190385759 446.90461155445183294 78.009497869018190385759 150.82707505757264244
80.009497869018218807469 449.05191805043426712 80.009497869018218807469 151.12373348022657638
82.009497869018190385759 451.12769964716301274 82.009497869018190385759 151.46104235499950619
84.009497869018218807469 453.13296627740612621 84.009497869018218807469 151.75502924498883317
86.009497869018190385759 455.06937400362465951 86.009497869018190385759 151.92112495823434415
88.009497869018190385759 456.94158788371430546 88.009497869018190385759 152.12195587499968497
91.009497869018218807469 459.63387289280029790 91.009497869018218807469 152.35838872735695304
94.009497869018218807469 462.19609718631733131 94.009497869018218807469 152.70009592147016519
97.009497869018218807469 464.64580547286675483 97.009497869018218807469 153.23199804437302873
99.504748934509137825444 466.61033514118798848 99.504748934509137825444 153.34184406342066609
nan nan nan nan

