Time Pressure difference Time.1 Pressure.1 difference.1
(hr) (psi) (hr) (psi)
0.000200000000020850166 0.67850058589994056 0.000200000000020850166 0.54636069250627084
0.000399999999999067768 1.30168203604928823 0.000399999999999067768 1.25176607146068997
0.000600000000019917934 1.89288110244028829 0.000600000000019917934 1.75861281030651617
0.000799999999998135536 2.46014055656047104 0.000799999999998135536 2.24456529168880303
0.001007140329434719206 3.02722785621119828 0.001007140329434719206 2.72821458272445394
0.001267914553977789183 3.71651675209856425 0.001267914553977789183 3.31003631303534895
0.001596209851982166583 4.55153598505181378 0.001596209851982166583 4.00204739333605009
0.002009509145224797066 5.55949736905053182 0.002009509145224797066 4.82101136661228846
0.002529822128153114136 6.77164780863617111 0.002529822128153114136 5.78519209212442753
0.003184857364431081805 8.22360738578993455 0.003184857364431081805 6.91428131716783412
0.004009497869034817086 9.95568765761318808 0.004009497869034817086 8.22930975692208122
0.005047658755856332391 12.01318827311059501 0.005047658755856332391 9.75256312635124978
0.006354625877790454069 14.44667586457638819 0.006354625877790454069 11.50753219683319450
0.008000000000009777068 17.31225662179887692 0.008000000000009777068 13.51893162537527715
0.010071403294361402914 20.67186238313973945 0.010071403294361402914 15.81282411731448967
0.012679145539692626699 24.59357831754596191 0.012679145539692626699 18.41688066117396616
0.015962098519750611558 29.15204594262555560 0.015962098519750611558 21.36078728073329813
0.020095091452091651263 34.42897402049216282 0.020095091452091651263 24.67677405676652214
0.025298221281360611101 40.51377943010950844 0.025298221281360611101 28.40023039878219535
0.031848573644296607199 47.50437329632283223 0.031848573644296607199 32.57046093097796557
0.040094978690191851456 55.50813855029170441 0.040094978690191851456 37.23181939027880105
0.050476587558435426217 64.64322212529738465 0.050476587558435426217 42.43541699196747174
0.063546258777947173257 75.04027639109735048 0.063546258777947173257 48.24082927663883424
0.080000000000012505552 86.84450502899659341 0.080000000000012505552 54.71577812742342672
0.100714032943542974863 100.21721305884328501 0.100714032943542974863 61.93094996978141609
0.126791455396883634421 115.33540607701614533 0.126791455396883634421 69.94842116792162301
0.159620985197506115583 132.38793263850914173 0.159620985197506115583 78.80607719208849460
0.200950914520774404082 151.56781270556678010 0.200950914520774404082 88.50423118906049069
0.252982212813464002465 173.06210097836435580 0.252982212813464002465 99.00225314329679804
0.318485736442809752589 197.04251583394866998 0.318485736442809752589 110.22279036000935548
0.400949786901833249431 223.65706164896167252 0.400949786901833249431 122.07850030703433220
0.504765875584169521062 253.03269315028515507 0.504765875584169521062 134.48771196187473720
0.635462587779443310865 285.27380704870392947 0.635462587779443310865 147.39408714521152888
0.800000000000011368684 320.47344919912467276 0.800000000000011368684 160.79292113078744819
1.007140329435344483500 358.72319840187003592 1.007140329435344483500 174.76385316018036065
1.267914553968907398485 400.13828951588726568 1.267914553968907398485 189.34342091381799378
1.596209851975117999245 444.80824670305815971 1.596209851975117999245 204.78185184115091033
2.009509145207687197399 492.93646962309117043 2.009509145207687197399 221.21499638698259105
2.529822128134725289783 544.64063705881210353 2.529822128134725289783 238.92942486482917275
3.184857364427983839050 600.20656939409570896 3.184857364427983839050 258.31494294681198198
4.009497869018204596614 659.86565808510670195 4.009497869018204596614 279.51670625579936313
5.009497869018190385759 721.70727296514678528 5.009497869018190385759 301.89807566922058868
6.009497869018190385759 775.42721754486581176 6.009497869018190385759 321.56185246711277159
7.009497869018204596614 823.13854663126232936 7.009497869018204596614 339.09934594422617238
8.009497869018190385759 866.16565414158424119 8.009497869018190385759 354.83918321073855395
9.009497869018204596614 905.40247706542038486 9.009497869018204596614 369.07130650290719132
10.009497869018190385759 941.48777391195187647 10.009497869018190385759 381.98251036567774008
11.009497869018190385759 974.89818454610883691 11.009497869018190385759 393.63919454437564127
12.009497869018204596614 1006.00194910098775836 12.009497869018204596614 404.29818860943237269
13.009497869018190385759 1035.08991495018881324 13.009497869018190385759 414.06965758515008247
14.009497869018204596614 1062.40005609552054011 14.009497869018204596614 423.03450530755526415
15.009497869018190385759 1088.12435436033979386 15.009497869018190385759 431.28875519823355944
16.009497869018190385759 1112.42210134983452008 16.009497869018190385759 438.91592593342164719
17.009497869018204596614 1135.43271988039896314 17.009497869018204596614 445.99382131652862427
18.009497869018190385759 1157.27689811904497219 18.009497869018190385759 452.60277940189968149
19.009497869018204596614 1178.05722070006822833 19.009497869018204596614 458.76342846177823276
20.009497869018190385759 1197.86625896771283806 20.009497869018190385759 464.50639202543356987
21.009497869018190385759 1216.77985575680327202 21.009497869018190385759 469.86007886054829896
22.009497869018204596614 1234.86291066863395827 22.009497869018204596614 474.87112531009398708
23.009497869018190385759 1252.17475700312593290 23.009497869018190385759 479.55672206038252625
24.009497869018204596614 1268.77024149106068762 24.009497869018204596614 483.96664077973525764
25.009497869018204596614 1284.70078811569669597 25.009497869018204596614 488.12406728545221313
26.009497869018190385759 1300.01166133345441267 26.009497869018190385759 492.05337676802861324
27.009497869018204596614 1314.74415032300157691 27.009497869018204596614 495.78118223982153268
28.009497869018190385759 1328.93411510096780148 28.009497869018190385759 499.31629965861964138
29.009497869018190385759 1342.61372059525842815 29.009497869018190385759 502.64391534587076649
30.009497869018190385759 1355.81281557225884171 30.009497869018190385759 505.83107004173035648
31.009497869018218807469 1368.55874267719559612 31.009497869018218807469 508.85491717900754338
32.009497869018190385759 1380.87668707513535082 32.009497869018190385759 511.72771684783361934
33.009497869018190385759 1392.78995730504993844 33.009497869018190385759 514.44522225966159112
34.009497869018218807469 1404.32096469157295360 34.009497869018218807469 517.06391167597416825
35.009497869018190385759 1415.48967566019518927 35.009497869018190385759 519.55981044158568238
36.009497869018190385759 1426.31454743924200557 36.009497869018190385759 521.96543930471341355
37.009497869018190385759 1436.81267773736954041 37.009497869018190385759 524.27863115248635495
38.009497869018218807469 1447.00034997439433937 38.009497869018218807469 526.50963251959331046
39.009497869018190385759 1456.89246190695757832 39.009497869018190385759 528.67401594996977110
40.009497869018190385759 1466.50296440858551250 40.009497869018190385759 530.76501208378317642
41.009497869018218807469 1475.84525483127072221 41.009497869018218807469 532.78085338438563667
42.009497869018190385759 1484.93159929389798890 42.009497869018190385759 534.71424969648239767
43.009497869018190385759 1493.77352619663452060 43.009497869018190385759 536.60546202265766169
44.009497869018218807469 1502.38218518455096273 44.009497869018218807469 538.38997014740618852
46.009497869018190385759 1518.94127494457802641 46.009497869018190385759 541.81697867094908361
48.009497869018218807469 1534.68026166463482696 48.009497869018218807469 544.99554560940725878
50.009497869018190385759 1549.65612048376601706 50.009497869018190385759 547.82651714475719018
52.009497869018190385759 1563.92548060805552268 52.009497869018190385759 550.39497294396528559
54.009497869018218807469 1577.54210900018529173 54.009497869018218807469 552.73736985651135001
56.009497869018190385759 1590.54859586754469092 56.009497869018190385759 554.87835326571587302
58.009497869018218807469 1602.98206231289873358 58.009497869018218807469 556.90276661803659408
60.009497869018190385759 1614.87913411199724578 60.009497869018190385759 558.94806512791319619
62.009497869018190385759 1626.27066118488392021 62.009497869018190385759 560.94571468437686690
64.009497869018218807469 1637.18883254076672529 64.009497869018218807469 562.89535780099470230
66.009497869018190385759 1647.67664627819613088 66.009497869018190385759 564.99279136285633740
68.009497869018190385759 1657.77125184048145456 68.009497869018190385759 567.13337262212303358
70.009497869018190385759 1667.49508662092694067 70.009497869018190385759 568.97510172844761200
72.009497869018190385759 1676.87146208794410995 72.009497869018190385759 570.48691165860077490
74.009497869018218807469 1685.92196858623378830 74.009497869018218807469 571.91601563705103217
76.009497869018190385759 1694.66396279835726091 76.009497869018190385759 573.26647298234570371
78.009497869018190385759 1703.11967512557930604 78.009497869018190385759 574.79057595469907938
80.009497869018218807469 1711.30289778043675142 80.009497869018218807469 575.92111876708190721
82.009497869018190385759 1719.21354445368433517 82.009497869018190385759 577.20657737808642196
84.009497869018218807469 1726.85546392271999139 84.009497869018218807469 578.32693918153302093
86.009497869018190385759 1734.23496731633440504 86.009497869018190385759 578.95991738285101746
88.009497869018190385759 1741.36983281734819684 88.009497869018190385759 579.72526881775092988
91.009497869018218807469 1751.62992736878095457 91.009497869018218807469 580.62629653660815165
94.009497869018218807469 1761.39437036970502959 94.009497869018218807469 581.92851680997250696
97.009497869018218807469 1770.73002337768957659 97.009497869018218807469 583.95555557246359513
99.504748934509137825444 1778.21669736578769516 99.504748934509137825444 584.37417044337200878
nan nan nan nan

