Time Pressure difference Time.1 Pressure.1 difference.1
(hr) (psi) (hr) (psi)
0.000200000000020850166 0.07256290720208845 0.000200000000020850166 0.05843107736836635
0.000399999999999067768 0.13920965545400327 0.000399999999999067768 0.13387134391586211
0.000600000000019917934 0.20243601646825574 0.000600000000019917934 0.18807656295450062
0.000799999999998135536 0.26310213228926760 0.000799999999998135536 0.24004722524125013
0.001007140329434719206 0.32374983688256476 0.001007140329434719206 0.29177157058905406
0.001267914553977789183 0.39746651042288944 0.001267914553977789183 0.35399506324633834
0.001596209851982166583 0.48676845705625787 0.001596209851982166583 0.42800286345490279
0.002009509145224797066 0.59456587078048684 0.002009509145224797066 0.51558776467628664
0.002529822128153114136 0.72420048229074818 0.002529822128153114136 0.61870301315994425
0.003184857364431081805 0.87948171601061054 0.003184857364431081805 0.73945456203448723
0.004009497869034817086 1.06472073074804752 0.004009497869034817086 0.88009156165539359
0.005047658755856332391 1.28476214166673408 0.005047658755856332391 1.04299737955465410
0.006354625877790454069 1.54501384659747498 0.006354625877790454069 1.23068425919825786
0.008000000000009777068 1.85147617675247100 0.008000000000009777068 1.44579533369504065
0.010071403294361402914 2.21077249301494483 0.010071403294361402914 1.69111790449780108
0.012679145539692626699 2.63018423021164116 0.012679145539692626699 1.96961127247395229
0.015962098519750611558 3.11769399827417715 0.015962098519750611558 2.28445023840256889
0.020095091452091651263 3.68204022049364932 0.020095091452091651263 2.63908167972034491
0.025298221281360611101 4.33278567223883382 0.025298221281360611101 3.03729035135818393
0.031848573644296607199 5.08040155429251872 0.031848573644296607199 3.48327972470216407
0.040094978690191851456 5.93637203900583810 0.040094978690191851456 3.98179325342562729
0.050476587558435426217 6.91333246543974234 0.050476587558435426217 4.53829707631846180
0.063546258777947173257 8.02525557876123763 0.063546258777947173257 5.15916255770007393
0.080000000000012505552 9.28767032834914019 0.080000000000012505552 5.85163228044109385
0.100714032943542974863 10.71782763694354834 0.100714032943542974863 6.62326587328423066
0.126791455396883634421 12.33465754076137344 0.126791455396883634421 7.48070215357044876
0.159620985197506115583 14.15835663278433110 0.159620985197506115583 8.42799281988156856
0.200950914520774404082 16.20956762121276640 0.200950914520774404082 9.46517136200536768
0.252982212813464002465 18.50829525347446847 0.252982212813464002465 10.58789256328532602
0.318485736442809752589 21.07290411895592186 0.318485736442809752589 11.78788386430088941
0.400949786901833249431 23.91922269013151237 0.400949786901833249431 13.05580433272583285
0.504765875584169521062 27.06082826414295539 0.504765875584169521062 14.38291958136918325
0.635462587779443310865 30.50888564908961698 0.635462587779443310865 15.76320446867201497
0.800000000000011368684 34.27334572471344387 0.800000000000011368684 17.19615584309413592
1.007140329435344483500 38.36400247517242690 1.007140329435344483500 18.69029080103362261
1.267914553968907398485 42.79317980489643247 1.267914553968907398485 20.24951690037524443
1.596209851975117999245 47.57045196273059418 1.596209851975117999245 21.90059495985847349
2.009509145207687197399 52.71757172374844913 2.009509145207687197399 23.65805363785811721
2.529822128134725289783 58.24712436020372053 2.529822128134725289783 25.55254047617247082
3.184857364427983839050 64.18967721193746456 3.184857364427983839050 27.62574362275718087
4.009497869018204596614 70.56997666400810942 4.009497869018204596614 29.89318688733465734
5.009497869018190385759 77.18368850895174660 5.009497869018190385759 32.28678427774464410
6.009497869018190385759 82.92882039895476964 6.009497869018190385759 34.38974607421161522
7.009497869018204596614 88.03135504215264007 7.009497869018204596614 36.26531042622925582
8.009497869018190385759 92.63293103829512631 8.009497869018190385759 37.94862268075153366
9.009497869018204596614 96.82915135098762960 9.009497869018204596614 39.47069099314443008
10.009497869018190385759 100.68832863225945573 10.009497869018190385759 40.85149228828085910
11.009497869018190385759 104.26143759754415896 11.009497869018190385759 42.09812775171382526
12.009497869018204596614 107.58786004718390927 12.009497869018204596614 43.23806427245308015
13.009497869018190385759 110.69870093734101602 13.009497869018190385759 44.28308355651549988
14.009497869018204596614 113.61941062984065809 14.009497869018204596614 45.24183794358638977
15.009497869018190385759 116.37052080810688892 15.009497869018190385759 46.12459675218153876
16.009497869018190385759 118.96906706828440292 16.009497869018190385759 46.94029196862392439
17.009497869018204596614 121.42996011951345281 17.009497869018204596614 47.69724439658574511
18.009497869018190385759 123.76610707557591695 18.009497869018190385759 48.40404586767836292
19.009497869018204596614 125.98847895028293919 19.009497869018204596614 49.06290249260472791
20.009497869018190385759 128.10697587637062611 20.009497869018190385759 49.67708933458330733
21.009497869018190385759 130.12970893981250242 21.009497869018190385759 50.24964459699359054
22.009497869018204596614 132.06361889179436275 22.009497869018204596614 50.78555584903982378
23.009497869018190385759 133.91505118997048385 23.009497869018190385759 51.28666156544333177
24.009497869018204596614 135.68987147148055783 24.009497869018204596614 51.75828462583717737
25.009497869018204596614 137.39357932439091314 25.009497869018204596614 52.20290466007592300
26.009497869018190385759 139.03101560015997507 26.009497869018190385759 52.62312849669103798
27.009497869018204596614 140.60659601028791599 27.009497869018204596614 53.02180229025653802
28.009497869018190385759 142.12415563924352568 28.009497869018190385759 53.39986887198026722
29.009497869018190385759 143.58713439662631117 29.009497869018190385759 53.75574397855508835
30.009497869018190385759 144.99872448788215706 30.009497869018190385759 54.09659734735153336
31.009497869018218807469 146.36185009888421860 31.009497869018218807469 54.41998562994898947
32.009497869018190385759 147.67920468168480852 32.009497869018190385759 54.72721999364922851
33.009497869018190385759 148.95328099072750661 33.009497869018190385759 55.01784626150735136
34.009497869018218807469 150.18647582699293253 34.009497869018218807469 55.29790455630594437
35.009497869018190385759 151.38092451933727034 35.009497869018190385759 55.56483088515305013
36.009497869018190385759 152.53860099405343931 36.009497869018190385759 55.82210321119867302
37.009497869018190385759 153.66133378227655726 37.009497869018190385759 56.06948977044230986
38.009497869018218807469 154.75086433022738674 38.009497869018218807469 56.30808638853424242
39.009497869018190385759 155.80878589302633941 39.009497869018190385759 56.53955848638044301
40.009497869018190385759 156.83659046045511332 40.009497869018190385759 56.76318210818849508
41.009497869018218807469 157.83571082539498320 41.009497869018218807469 56.97876822302691124
42.009497869018190385759 158.80745879989865443 42.009497869018190385759 57.18553717812436332
43.009497869018190385759 159.75306729997083721 43.009497869018190385759 57.38779472568665341
44.009497869018218807469 160.67372873528273658 44.009497869018218807469 57.57864068831135285
46.009497869018190385759 162.44465674710480130 46.009497869018190385759 57.94514545874537959
48.009497869018218807469 164.12787803910646289 48.009497869018218807469 58.28508040144708247
50.009497869018190385759 165.72948587312600921 50.009497869018190385759 58.58784141459916839
52.009497869018190385759 167.25553651486370654 52.009497869018190385759 58.86252742620136047
54.009497869018218807469 168.71178012460637774 54.009497869018218807469 59.11303734959383149
56.009497869018190385759 170.10277155364039459 56.009497869018190385759 59.34200690934336819
58.009497869018218807469 171.43248075452169132 58.009497869018218807469 59.55850977061692220
60.009497869018190385759 172.70482470657520935 60.009497869018190385759 59.77724621544385286
62.009497869018190385759 173.92310268460170164 62.009497869018190385759 59.99088679645485911
64.009497869018218807469 175.09075717359908708 64.009497869018218807469 60.19939328191453853
66.009497869018190385759 176.21238664717202482 66.009497869018190385759 60.42370536074648868
68.009497869018190385759 177.29196408878357261 68.009497869018190385759 60.65263191217853489
70.009497869018190385759 178.33188908735382938 70.009497869018190385759 60.84959742851093267
72.009497869018190385759 179.33465471061805374 72.009497869018190385759 61.01127941663095555
74.009497869018218807469 180.30256995905696726 74.009497869018218807469 61.16411633604624853
76.009497869018190385759 181.23749106002276221 76.009497869018190385759 61.30854231453973568
78.009497869018190385759 182.14179546546986899 78.009497869018190385759 61.47153899405271460
80.009497869018218807469 183.01695819702572976 80.009497869018218807469 61.59244599824359767
82.009497869018190385759 183.86297002426391600 82.009497869018190385759 61.72992062367627142
84.009497869018218807469 184.68024255843860715 84.009497869018218807469 61.84973880993241124
86.009497869018190385759 185.46945074937644904 86.009497869018190385759 61.91743328129717128
88.009497869018190385759 186.23249590218605931 88.009497869018190385759 61.99928453728978184
91.009497869018218807469 187.32977172521691500 91.009497869018218807469 62.09564582585556280
94.009497869018218807469 188.37403960954949866 94.009497869018218807469 62.23491304362439536
97.009497869018218807469 189.37245012969782465 97.009497869018218807469 62.45169668195035229
99.504748934509137825444 190.17311978443373732 99.504748934509137825444 62.49646585778067731
nan nan nan nan

