Time Pressure difference Time.1 Pressure.1 difference.1
(hr) (psi) (hr) (psi)
0.000200000000020850166 0.62389138769630692 0.000200000000020850166 0.50238678891976840
0.000399999999999067768 1.19691600668699705 0.000399999999999067768 1.15101753428689690
0.000600000000019917934 1.74053234777861121 0.000600000000019917934 1.61707065468096411
0.000799999999998135536 2.26213585906442427 0.000799999999998135536 2.06391119434229520
0.001007140329434719206 2.78358107175318592 0.001007140329434719206 2.50863391619867127
0.001267914553977789183 3.41739247105865740 0.001267914553977789183 3.04362765719016659
0.001596209851982166583 4.18520508438060990 0.001596209851982166583 3.67994214558132926
0.002009509145224797066 5.11204057970026859 0.002009509145224797066 4.43299170866003234
0.002529822128153114136 6.22663095082973150 0.002529822128153114136 5.31957023685972796
0.003184857364431081805 7.56172939332834204 0.003184857364431081805 6.35778458491507514
0.004009497869034817086 9.15440298395744101 0.004009497869034817086 7.56697280845977538
0.005047658755856332391 11.04630542422738237 0.005047658755856332391 8.96762695410908606
0.006354625877790454069 13.28393348517828976 0.006354625877790454069 10.58134713578708208
0.008000000000009777068 15.91887764341815092 0.008000000000009777068 12.43085884847076095
0.010071403294361402914 19.00808514612849365 0.010071403294361402914 14.54012713764088716
0.012679145539692626699 22.61416131955163422 0.012679145539692626699 16.93459588910593894
0.015962098519750611558 26.80574015010993705 0.015962098519750611558 19.64156184358497370
0.020095091452091651263 31.65795406073921114 0.020095091452091651263 22.69066104006977014
0.025298221281360611101 37.25302320254832722 0.025298221281360611101 26.11443456734768631
0.031848573644296607199 43.68097831216454807 0.031848573644296607199 29.94902361238767696
0.040094978690191851456 51.04055959310174728 0.040094978690191851456 34.23521209646364127
0.050476587558435426217 59.44040490903860530 0.050476587558435426217 39.01999754277934329
0.063546258777947173257 69.00065105862753967 0.063546258777947173257 44.35816054764805472
0.080000000000012505552 79.85481498807405387 0.080000000000012505552 50.31197239059662962
0.100714032943542974863 92.15121906403008722 0.100714032943542974863 56.94643029194895689
0.126791455396883634421 106.05262256695861822 0.126791455396883634421 64.31861439255416713
0.159620985197506115583 121.73267455404258897 0.159620985197506115583 72.46336094619823598
0.200950914520774404082 139.36885975352006994 0.200950914520774404082 81.38095789600490093
0.252982212813464002465 159.13317774636811919 0.252982212813464002465 91.03404533793775499
0.318485736442809752589 181.18352613617770430 0.318485736442809752589 101.35149631780352308
0.400949786901833249431 205.65599715020289295 0.400949786901833249431 112.25299807725096457
0.504765875584169521062 232.66732754943532768 0.504765875584169521062 123.66345289548348774
0.635462587779443310865 262.31351166330659908 0.635462587779443310865 135.53105697806660146
0.800000000000011368684 294.68010654031968443 0.800000000000011368684 147.85148425918052340
1.007140329435344483500 329.85132025045157889 1.007140329435344483500 160.69796420682516214
1.267914553968907398485 367.93311296168684521 1.267914553968907398485 174.10409376198919063
1.596209851975117999245 409.00780347337439480 1.596209851975117999245 188.29996078888626698
2.009509145207687197399 453.26242080006397828 2.009509145207687197399 203.41048179354297076
2.529822128134725289783 500.80517233412268752 2.529822128134725289783 219.69916244461691690
3.184857364427983839050 551.89887417274064774 3.184857364427983839050 237.52443485958235669
4.009497869018204596614 606.75629420394602676 4.009497869018204596614 257.01977179419691311
5.009497869018190385759 663.62057955119337294 5.009497869018190385759 277.59977409937147286
6.009497869018190385759 713.01686817245649763 6.009497869018190385759 295.68090954528338443
7.009497869018204596614 756.88814541397209723 7.009497869018204596614 311.80689582964123474
8.009497869018190385759 796.45221119523841935 8.009497869018190385759 326.27991047161623328
9.009497869018204596614 832.53105388374933682 9.009497869018204596614 339.36655967301499004
10.009497869018190385759 865.71202143612777036 10.009497869018190385759 351.23860379820860089
11.009497869018190385759 896.43339130259619196 11.009497869018190385759 361.95709840133326907
12.009497869018204596614 925.03376576650907737 12.009497869018204596614 371.75820209511203984
13.009497869018190385759 951.78058331693216587 13.009497869018190385759 380.74321325911262193
14.009497869018204596614 976.89266459058876535 14.009497869018204596614 388.98652417475312859
15.009497869018190385759 1000.54653973155825497 15.009497869018190385759 396.57642980741650263
16.009497869018190385759 1022.88867974174422670 16.009497869018190385759 403.58972682301390478
17.009497869018204596614 1044.04728597602297668 17.009497869018204596614 410.09795697683000526
18.009497869018190385759 1064.13333300031263207 18.009497869018190385759 416.17499230560565593
19.009497869018204596614 1083.24114891274189176 19.009497869018204596614 421.83980081270459550
20.009497869018190385759 1101.45585444219705096 20.009497869018190385759 427.12054128909772999
21.009497869018190385759 1118.84718820416105700 21.009497869018190385759 432.04333601951191213
22.009497869018204596614 1135.47482634800530832 22.009497869018204596614 436.65106781545574677
23.009497869018190385759 1151.39332672613772957 23.009497869018190385759 440.95954376886328419
24.009497869018204596614 1166.65312172386393286 24.009497869018204596614 445.01452966956912860
25.009497869018204596614 1181.30149645919618706 25.009497869018204596614 448.83734522168373360
26.009497869018190385759 1195.38007227354046336 26.009497869018190385759 452.45040377567346468
27.009497869018204596614 1208.92681518123845308 27.009497869018204596614 455.87817639251500168
28.009497869018190385759 1221.97469900133091869 28.009497869018190385759 459.12876947661385429
29.009497869018190385759 1234.55329986377660134 29.009497869018190385759 462.18856163005096960
30.009497869018190385759 1246.69006415354351702 30.009497869018190385759 465.11919781124919382
31.009497869018218807469 1258.41013383989093199 31.009497869018218807469 467.89967026162321417
32.009497869018190385759 1269.73666705696018653 32.009497869018190385759 470.54125231653051742
33.009497869018190385759 1280.69109635326526586 33.009497869018190385759 473.04003899069203953
34.009497869018218807469 1291.29402927538239965 34.009497869018218807469 475.44796288617692426
35.009497869018190385759 1301.56382524873492912 35.009497869018190385759 477.74297895069736342
36.009497869018190385759 1311.51745596949035644 36.009497869018190385759 479.95499049628551802
37.009497869018190385759 1321.17064303524398383 37.009497869018190385759 482.08200483040093332
38.009497869018218807469 1330.53835929288288753 38.009497869018218807469 484.13344379420163932
39.009497869018190385759 1339.63430345138090161 39.009497869018190385759 486.12362657362160689
40.009497869018190385759 1348.47130354659361728 40.009497869018190385759 488.04632864153819582
41.009497869018218807469 1357.06167864308690696 41.009497869018218807469 489.89992472169524262
42.009497869018190385759 1365.41670761974751258 42.009497869018190385759 491.67771140779086636
43.009497869018190385759 1373.54699101212031565 43.009497869018190385759 493.41670929095533893
44.009497869018218807469 1381.46278108480214541 44.009497869018218807469 495.05759107269761898
46.009497869018190385759 1396.68911058850926565 46.009497869018190385759 498.20877641849125439
48.009497869018218807469 1411.16134314035866737 48.009497869018218807469 501.13151602893680092
50.009497869018190385759 1424.93186822873303754 50.009497869018190385759 503.73463649253307040
52.009497869018190385759 1438.05275725150841026 52.009497869018190385759 506.09636982940139660
54.009497869018218807469 1450.57344973115164066 54.009497869018218807469 508.25023865527072076
56.009497869018190385759 1462.53310799727910307 56.009497869018190385759 510.21890476693158689
58.009497869018218807469 1473.96586545640298027 58.009497869018218807469 512.08038297623215840
60.009497869018190385759 1484.90540005447155636 60.009497869018190385759 513.96106539876473107
62.009497869018190385759 1495.38007875214248088 62.009497869018190385759 515.79793389941607984
64.009497869018218807469 1505.41949982249093409 64.009497869018218807469 517.59065976408987808
66.009497869018190385759 1515.06320065712861833 66.009497869018190385759 519.51928114291320071
68.009497869018190385759 1524.34534072211840794 68.009497869018190385759 521.48757747172066956
70.009497869018190385759 1533.28655153456793414 70.009497869018190385759 523.18107479771254020
72.009497869018190385759 1541.90826833665414597 72.009497869018190385759 524.57120653062077054
74.009497869018218807469 1550.23034377168573883 74.009497869018218807469 525.88528890992347442
76.009497869018190385759 1558.26873756761847289 76.009497869018190385759 527.12705453944477085
78.009497869018190385759 1566.04389090929771555 78.009497869018190385759 528.52848990762856829
80.009497869018218807469 1573.56848594143775699 80.009497869018218807469 529.56804085087799194
82.009497869018190385759 1580.84244330140313650 82.009497869018190385759 530.75003917676292531
84.009497869018218807469 1587.86930199729704327 84.009497869018218807469 531.78022853075913190
86.009497869018190385759 1594.65486520597892195 86.009497869018190385759 532.36226140826647679
88.009497869018190385759 1601.21548023116679360 88.009497869018190385759 533.06601344432658607
91.009497869018218807469 1610.64978988485472655 91.009497869018218807469 533.89452184292304082
94.009497869018218807469 1619.62834056045653597 94.009497869018218807469 535.09193276683242857
97.009497869018218807469 1628.21261245533969486 97.009497869018218807469 536.95582507986182463
99.504748934509137825444 1635.09672062080130672 99.504748934509137825444 537.34074768442360437
nan nan nan nan

