Time Pressure difference Time.1 Pressure.1 difference.1
(hr) (psi) (hr) (psi)
0.000200000000020850166 0.38301245863370403 0.000200000000020850166 0.30841970734642854
0.000399999999999067768 0.73479735662319245 0.000399999999999067768 0.70661987716413821
0.000600000000019917934 1.06852825187367984 0.000600000000019917934 0.99273402301757030
0.000799999999998135536 1.38874527558871130 0.000799999999998135536 1.26705339508783577
0.001007140329434719206 1.70886511839044486 0.001007140329434719206 1.54007262001645029
0.001267914553977789183 2.09796756017030317 0.001267914553977789183 1.86851002455799198
0.001596209851982166583 2.56933453621447505 0.001596209851982166583 2.25914913493721903
0.002009509145224797066 3.13832707051143567 0.002009509145224797066 2.72145294344596689
0.002529822128153114136 3.82258398899858820 0.002529822128153114136 3.26573136843187095
0.003184857364431081805 4.64221276904569713 0.003184857364431081805 3.90310036867688082
0.004009497869034817086 5.61996921796907589 0.004009497869034817086 4.64543174811919091
0.005047658755856332391 6.78142491271513226 0.005047658755856332391 5.50530575599982352
0.006354625877790454069 8.15512463358667183 0.006354625877790454069 6.49598289391245309
0.008000000000009777068 9.77274023193056784 0.008000000000009777068 7.63141454486454407
0.010071403294361402914 11.66923212807888355 0.010071403294361402914 8.92631306291622906
0.012679145539692626699 13.88303428730268330 0.012679145539692626699 10.39629867532642749
0.015962098519750611558 16.45628172284926549 0.015962098519750611558 12.05812909342386874
0.020095091452091651263 19.43509889580153072 0.020095091452091651263 13.92999814450326390
0.025298221281360611101 22.86996148645652838 0.025298221281360611101 16.03188309170505477
0.031848573644296607199 26.81614016286360780 0.031848573644296607199 18.38597133038667764
0.040094978690191851456 31.33425241207205403 0.040094978690191851456 21.01730047168990723
0.050476587558435426217 36.49099198252729792 0.050476587558435426217 23.95472271211393789
0.063546258777947173257 42.36011192088405863 0.063546258777947173257 27.23186834579832905
0.080000000000012505552 49.02357946510061737 0.080000000000012505552 30.88696626377154786
0.100714032943542974863 56.57245103211440096 0.100714032943542974863 34.95991883630439645
0.126791455396883634421 65.10664598834868855 0.126791455396883634421 39.48576806833061426
0.159620985197506115583 74.73276903077915279 0.159620985197506115583 44.48590024514807340
0.200950914520774404082 85.55977960887562972 0.200950914520774404082 49.96049213759533814
0.252982212813464002465 97.69326979153534296 0.252982212813464002465 55.88660816909367668
0.318485736442809752589 111.23017431861269699 0.318485736442809752589 62.22058287136139398
0.400949786901833249431 126.25404141595190310 0.400949786901833249431 68.91311152943944762
0.504765875584169521062 142.83653681691953352 0.504765875584169521062 75.91809098619610552
0.635462587779443310865 161.03659229210188641 0.635462587779443310865 83.20371843257805722
0.800000000000011368684 180.90673207271424872 0.800000000000011368684 90.76733805839378988
1.007140329435344483500 202.49865224008539144 1.007140329435344483500 98.65390608380633353
1.267914553968907398485 225.87740268151517853 1.267914553968907398485 106.88404796899096993
1.596209851975117999245 251.09351963833054810 1.596209851975117999245 115.59901669533545032
2.009509145207687197399 278.26182188205365264 2.009509145207687197399 124.87549961426140044
2.529822128134725289783 307.44873889097220854 2.529822128134725289783 134.87526519381756884
3.184857364427983839050 338.81561579909259763 3.184857364427983839050 145.81835809125439596
4.009497869018204596614 372.49307270074382359 4.009497869018204596614 157.78671841562209011
5.009497869018190385759 407.40256202663192653 5.009497869018190385759 170.42096443510575909
6.009497869018190385759 437.72738189963752120 6.009497869018190385759 181.52113391748810045
7.009497869018204596614 464.66034826373351052 7.009497869018204596614 191.42101998174618416
8.009497869018190385759 488.94907929491859022 8.009497869018190385759 200.30613208809054981
9.009497869018204596614 511.09820094541925073 9.009497869018204596614 208.34014214938090959
10.009497869018190385759 531.46829133728704164 10.009497869018190385759 215.62849537731753458
11.009497869018190385759 550.32841288600627649 11.009497869018190385759 222.20867431832451189
12.009497869018204596614 567.88643653771305253 12.009497869018204596614 228.22565884016469795
13.009497869018190385759 584.30654515380001612 13.009497869018190385759 233.74163691686533184
14.009497869018204596614 599.72307466472602755 14.009497869018204596614 238.80227863006425082
15.009497869018190385759 614.24439849227553623 15.009497869018190385759 243.46178904244277419
16.009497869018190385759 627.96043648414035943 16.009497869018190385759 247.76731430861286753
17.009497869018204596614 640.94989258959685685 17.009497869018204596614 251.76277454692683477
18.009497869018190385759 653.28089507932861579 18.009497869018190385759 255.49352045619914975
19.009497869018204596614 665.01135280974085617 19.009497869018204596614 258.97119666199608901
20.009497869018190385759 676.19352215156459351 20.009497869018190385759 262.21309009594489225
21.009497869018190385759 686.87021625962881899 21.009497869018190385759 265.23523746041973936
22.009497869018204596614 697.07807085153319804 22.009497869018204596614 268.06396489390090210
23.009497869018190385759 706.85057947695759140 23.009497869018190385759 270.70897651038131926
24.009497869018204596614 716.21870302472223102 24.009497869018204596614 273.19836833431583045
25.009497869018204596614 725.21147024833146588 25.009497869018204596614 275.54522872122549870
26.009497869018190385759 733.85443285857627416 26.009497869018190385759 277.76331742583312234
27.009497869018204596614 742.17089852853007415 27.009497869018204596614 279.86765744960155189
28.009497869018190385759 750.18111017827516207 28.009497869018190385759 281.86322538612267863
29.009497869018190385759 757.90322485641922867 29.009497869018190385759 283.74165893835265706
30.009497869018190385759 765.35409214222340779 30.009497869018190385759 285.54080249323692442
31.009497869018218807469 772.54914691369799584 31.009497869018218807469 287.24775920138023366
32.009497869018190385759 779.50260615487241012 32.009497869018190385759 288.86944986338562558
33.009497869018190385759 786.22762749744822486 33.009497869018190385759 290.40347717414192630
34.009497869018218807469 792.73686209711729589 34.009497869018218807469 291.88172301885202842
35.009497869018190385759 799.04158096804837896 35.009497869018190385759 293.29065374431297641
36.009497869018190385759 805.15220318510682773 36.009497869018190385759 294.64862725911052621
37.009497869018190385759 811.07838037655267271 37.009497869018190385759 295.95442023161302814
38.009497869018218807469 816.82930450594255944 38.009497869018218807469 297.21381681370650085
39.009497869018190385759 822.41338533226269192 39.009497869018190385759 298.43560768068857669
40.009497869018190385759 827.83849810054664431 40.009497869018190385759 299.61597154012895317
41.009497869018218807469 833.11220559383741602 41.009497869018218807469 300.75391062051318158
42.009497869018190385759 838.24143201595995833 42.009497869018190385759 301.84530964123371177
43.009497869018190385759 843.23268512974300393 43.009497869018190385759 302.91289587166568253
44.009497869018218807469 848.09225889138929233 44.009497869018218807469 303.92024775685996474
46.009497869018190385759 857.43983767543977592 46.009497869018190385759 305.85478840080037344
48.009497869018218807469 866.32446964971654779 48.009497869018218807469 307.64908418083410879
50.009497869018190385759 874.77831718598474708 50.009497869018190385759 309.24716293066779826
52.009497869018190385759 882.83334737742484322 52.009497869018190385759 310.69705198159891779
54.009497869018218807469 890.51991158555119910 54.009497869018218807469 312.01933116486645758
56.009497869018190385759 897.86205191199871933 56.009497869018190385759 313.22791275859594862
58.009497869018218807469 904.88072315788770084 58.009497869018218807469 314.37069074799859436
60.009497869018190385759 911.59660051305684192 60.009497869018190385759 315.52525837430158617
62.009497869018190385759 918.02709870635123934 62.009497869018190385759 316.65292824520503245
64.009497869018218807469 924.19038838023436711 64.009497869018218807469 317.75349856020869765
66.009497869018190385759 930.11074189022758674 66.009497869018190385759 318.93749633713611047
68.009497869018190385759 935.80913003564114661 68.009497869018190385759 320.14585091789081162
70.009497869018190385759 941.29821868788826578 70.009497869018190385759 321.18550395255255125
72.009497869018190385759 946.59116713233447626 72.009497869018190385759 322.03891815788711028
74.009497869018218807469 951.70016308285744344 74.009497869018218807469 322.84564499026475914
76.009497869018190385759 956.63500435805838151 76.009497869018190385759 323.60797592829220548
78.009497869018190385759 961.40823998268638206 78.009497869018190385759 324.46832953561846580
80.009497869018218807469 966.02765563790910619 80.009497869018218807469 325.10651908351263728
82.009497869018190385759 970.49320260230035728 82.009497869018190385759 325.83215834352836282
84.009497869018218807469 974.80705350433584044 84.009497869018218807469 326.46460072871542479
86.009497869018190385759 978.97277096578079636 86.009497869018190385759 326.82191587653767328
88.009497869018190385759 983.00039074143580820 88.009497869018190385759 327.25395549579764065
91.009497869018218807469 988.79219714753673998 91.009497869018218807469 327.76258415296956628
94.009497869018218807469 994.30420907308598544 94.009497869018218807469 328.49768534366688755
97.009497869018218807469 999.57416975675539561 97.009497869018218807469 329.64194537276887331
99.504748934509137825444 1003.80038484154715661 99.504748934509137825444 329.87825277508977706
nan nan nan nan

