Time Pressure difference Time.1 Pressure.1 difference.1
(hr) (psi) (hr) (psi)
0.000200000000020850166 0.73759821135318782 0.000200000000020850166 0.59394888953823932
0.000399999999999067768 1.41505897193450747 0.000399999999999067768 1.36079531032000034
0.000600000000019917934 2.05775167255360980 0.000600000000019917934 1.91178856776430539
0.000799999999998135536 2.67441961275482276 0.000799999999998135536 2.44006767100899635
0.001007140329434719206 3.29090040377534887 0.001007140329434719206 2.96584297526605445
0.001267914553977789183 4.04022659048421673 0.001267914553977789183 3.59834157073082039
0.001596209851982166583 4.94797627481928171 0.001596209851982166583 4.35062704501581621
0.002009509145224797066 6.04373142875835079 0.002009509145224797066 5.24092305124555313
0.002529822128153114136 7.36146057256368724 0.002529822128153114136 6.28908423686293894
0.003184857364431081805 8.93988630913878346 0.003184857364431081805 7.51651750686602416
0.004009497869034817086 10.82283134554200998 0.004009497869034817086 8.94608535868266053
0.005047658755856332391 13.05954094518968844 0.005047658755856332391 10.60201460042153521
0.006354625877790454069 15.70498611077433360 0.006354625877790454069 12.50984205741734101
0.008000000000009777068 18.82015989977254122 0.008000000000009777068 14.69643504147742341
0.010071403294361402914 22.47238843415191312 0.010071403294361402914 17.19012632819414321
0.012679145539692626699 26.73568712359461941 0.012679145539692626699 20.02099705834347532
0.015962098519750611558 31.69119878658081291 0.015962098519750611558 23.22131891819518401
0.020095091452091651263 37.42774904543028924 0.020095091452091651263 26.82612923921917414
0.025298221281360611101 44.04254301884010658 0.025298221281360611101 30.87389986019762489
0.031848573644296607199 51.64201992301467925 0.031848573644296607199 35.40735885109622672
0.040094978690191851456 60.34291577793563732 0.040094978690191851456 40.47472317399657982
0.050476587558435426217 70.27366815385138921 0.050476587558435426217 46.13155584793816644
0.063546258777947173257 81.57630928513999891 0.063546258777947173257 52.44262146280694026
0.080000000000012505552 94.40869014177579288 0.080000000000012505552 59.48154050015380534
0.100714032943542974863 108.94616546418905045 0.100714032943542974863 67.32515619647682570
0.126791455396883634421 125.38115809474962248 0.126791455396883634421 76.04095178783983044
0.159620985197506115583 143.91896536005515372 0.159620985197506115583 85.67011258147655894
0.200950914520774404082 164.76941932490501586 0.200950914520774404082 96.21297899935352405
0.252982212813464002465 188.13586721573014415 0.252982212813464002465 107.62538213813743937
0.318485736442809752589 214.20498413701585605 0.318485736442809752589 119.82323185773893215
0.400949786901833249431 243.13766569556361219 0.400949786901833249431 132.71157806255331479
0.504765875584169521062 275.07192441695832485 0.504765875584169521062 146.20163615701045501
0.635462587779443310865 310.12125000002436082 0.635462587779443310865 160.23216088773821753
0.800000000000011368684 348.38679262440672346 0.800000000000011368684 174.79803774526615712
1.007140329435344483500 389.96810763422689661 1.007140329435344483500 189.98584257545516607
1.267914553968907398485 434.99046688276166606 1.267914553968907398485 205.83529550278339570
1.596209851975117999245 483.55119211600373319 1.596209851975117999245 222.61841887031397391
2.009509145207687197399 535.87139917129866262 2.009509145207687197399 240.48289574152684622
2.529822128134725289783 592.07901669238015074 2.529822128134725289783 259.74025679903149921
3.184857364427983839050 652.48476011309639944 3.184857364427983839050 280.81425991792355035
4.009497869018204596614 717.34017516197923214 4.009497869018204596614 303.86270382383474953
5.009497869018190385759 784.56821515284980251 5.009497869018190385759 328.19349791604349775
6.009497869018190385759 842.96718467391133345 6.009497869018190385759 349.56999617703763761
7.009497869018204596614 894.83418630476808175 7.009497869018204596614 368.63501113672214160
8.009497869018190385759 941.60896911091754191 8.009497869018190385759 385.74579343526812636
9.009497869018204596614 984.26333228942064579 9.009497869018204596614 401.21753937361245335
10.009497869018190385759 1023.49167042688475249 10.009497869018190385759 415.25331336334977550
11.009497869018190385759 1059.81213887812918983 11.009497869018190385759 427.92529858958585010
12.009497869018204596614 1093.62505161364265405 12.009497869018204596614 439.51269456328589058
13.009497869018190385759 1125.24658890946648171 13.009497869018190385759 450.13526171880704396
14.009497869018204596614 1154.93545238167916978 14.009497869018204596614 459.88095064305343840
15.009497869018190385759 1182.90034553395253170 15.009497869018190385759 468.85414842939172786
16.009497869018190385759 1209.31443432297351137 16.009497869018190385759 477.14564825838334627
17.009497869018204596614 1234.32928533855942987 17.009497869018204596614 484.84003067044898216
18.009497869018190385759 1258.07609872698822073 18.009497869018190385759 492.02463119103975941
19.009497869018204596614 1280.66639427813379370 19.009497869018204596614 498.72187482173472972
20.009497869018190385759 1302.20080633094266886 20.009497869018190385759 504.96505241133132813
21.009497869018190385759 1322.76178365623832178 21.009497869018190385759 510.78504714057402225
22.009497869018204596614 1342.41987863205417852 22.009497869018204596614 516.23255739333262682
23.009497869018190385759 1361.23959250835969215 23.009497869018190385759 521.32627117038282449
24.009497869018204596614 1379.28054918432826526 24.009497869018204596614 526.12029526881917718
25.009497869018204596614 1396.59865168916962830 25.009497869018204596614 530.63983499829748780
26.009497869018190385759 1413.24310702843013132 26.009497869018190385759 534.91138863646767732
27.009497869018204596614 1429.25880068189576377 27.009497869018204596614 538.96388719786546062
28.009497869018190385759 1444.68471608550635210 28.009497869018190385759 542.80691451311895435
29.009497869018190385759 1459.55581974302617709 29.009497869018190385759 546.42436662737441111
30.009497869018190385759 1473.90456025826597397 30.009497869018190385759 549.88912355142895194
31.009497869018218807469 1487.76066182989507070 31.009497869018218807469 553.17634877453292575
32.009497869018190385759 1501.15150325918784802 32.009497869018190385759 556.29937024472314988
33.009497869018190385759 1514.10242326657021295 33.009497869018190385759 559.25357127676545588
34.009497869018218807469 1526.63778521046401693 34.009497869018218807469 562.10034940739865306
35.009497869018190385759 1538.77929459862434669 35.009497869018190385759 564.81364178104036000
36.009497869018190385759 1550.54701629006899566 36.009497869018190385759 567.42880171383399102
37.009497869018190385759 1561.95953720953298216 37.009497869018190385759 569.94347333666109989
38.009497869018218807469 1573.03455906808471809 38.009497869018218807469 572.36879566077072923
39.009497869018190385759 1583.78827722189635097 39.009497869018190385759 574.72169760382598724
40.009497869018190385759 1594.23585767019335435 40.009497869018190385759 576.99482019251388465
41.009497869018218807469 1604.39186467875742892 41.009497869018218807469 579.18624193716004811
42.009497869018190385759 1614.26963274948548133 42.009497869018190385759 581.28803770753211211
43.009497869018190385759 1623.88169441001286941 43.009497869018190385759 583.34397525285612573
44.009497869018218807469 1633.24017044318316039 44.009497869018218807469 585.28391462551542190
46.009497869018190385759 1651.24156239840567650 46.009497869018190385759 589.00941672497879154
48.009497869018218807469 1668.35142006761839184 48.009497869018218807469 592.46483789512183193
50.009497869018190385759 1684.63168114332233927 50.009497869018190385759 595.54238798757512541
52.009497869018190385759 1700.14390725418138572 52.009497869018190385759 598.33455713643866147
54.009497869018218807469 1714.94654848311211026 54.009497869018218807469 600.88097759484048765
56.009497869018190385759 1729.08590465865381702 56.009497869018190385759 603.20844136713981243
58.009497869018218807469 1742.60233014390087192 58.009497869018218807469 605.40918179204425087
60.009497869018190385759 1755.53564083178525834 60.009497869018190385759 607.63262647863552957
62.009497869018190385759 1767.91937368059052460 62.009497869018190385759 609.80427197221126789
64.009497869018218807469 1779.78852137287321966 64.009497869018218807469 611.92372964915182365
66.009497869018190385759 1791.18982715578977150 66.009497869018190385759 614.20385036800041689
68.009497869018190385759 1802.16367620144956163 68.009497869018190385759 616.53087696296950071
70.009497869018190385759 1812.73446020753476660 70.009497869018190385759 618.53302128362656731
72.009497869018190385759 1822.92752107906585479 72.009497869018190385759 620.17651035874348509
74.009497869018218807469 1832.76632968690910275 74.009497869018218807469 621.73008976640835499
76.009497869018190385759 1842.26975448641724142 76.009497869018190385759 623.19817239315648294
78.009497869018190385759 1851.46196215415784536 78.009497869018190385759 624.85502523851528167
80.009497869018218807469 1860.35794620894216678 80.009497869018218807469 626.08403870379572709
82.009497869018190385759 1868.95761282396119896 82.009497869018190385759 627.48146118499801105
84.009497869018218807469 1877.26514600639666241 84.009497869018218807469 628.69940687209657426
86.009497869018190385759 1885.28740658644505857 86.009497869018190385759 629.38751768411361809
88.009497869018190385759 1893.04372123253074278 88.009497869018190385759 630.21953148214151952
91.009497869018218807469 1904.19747341302968380 91.009497869018218807469 631.19903901333589147
94.009497869018218807469 1914.81240262902906579 94.009497869018218807469 632.61468310323346032
97.009497869018218807469 1924.96119410187657195 97.009497869018218807469 634.81827761240253949
99.504748934509137825444 1933.09995987063575740 99.504748934509137825444 635.27335397702836417
nan nan nan nan

