Time Pressure difference Time.1 Pressure.1 difference.1
(hr) (psi) (hr) (psi)
0.000200000000020850166 0.26032878047759567 0.000200000000020850166 0.20962901983702567
0.000399999999999067768 0.49943257832982618 0.000399999999999067768 0.48028069776000015
0.000600000000019917934 0.72626529619539171 0.000600000000019917934 0.67474890626975481
0.000799999999998135536 0.94391280450170212 0.000799999999998135536 0.86120035447376331
0.001007140329434719206 1.16149426015600543 0.001007140329434719206 1.04676810891743122
0.001267914553977789183 1.42596232605325279 0.001267914553977789183 1.27000290731676024
0.001596209851982166583 1.74634456758327583 0.001596209851982166583 1.53551542765264082
0.002009509145224797066 2.13308168073824156 0.002009509145224797066 1.84973754749843078
0.002529822128153114136 2.59816255502247762 0.002529822128153114136 2.21967678948103719
0.003184857364431081805 3.15525399146074736 0.003184857364431081805 2.65288853183506745
0.004009497869034817086 3.81982282783835680 0.004009497869034817086 3.15744189129976238
0.005047658755856332391 4.60924974536106635 0.005047658755856332391 3.74188750603113007
0.006354625877790454069 5.54293627439094116 0.006354625877790454069 4.41523837320612067
0.008000000000009777068 6.64240937639030893 0.008000000000009777068 5.18697707346261971
0.010071403294361402914 7.93143121205361634 0.010071403294361402914 6.06710340995087360
0.012679145539692626699 9.43612486715104204 0.012679145539692626699 7.06623425588593079
0.015962098519750611558 11.18512898349911033 0.015962098519750611558 8.19575961818653553
0.020095091452091651263 13.20979378074010313 0.020095091452091651263 9.46804561384206167
0.025298221281360611101 15.54442694782592049 0.025298221281360611101 10.89667053889327875
0.031848573644296607199 18.22659526694635801 0.031848573644296607199 12.49671488862219526
0.040094978690191851456 21.29749968633022661 0.040094978690191851456 14.28519641435173426
0.050476587558435426217 24.80247111312402453 0.050476587558435426217 16.28172559338994319
0.063546258777947173257 28.79163857122588155 0.063546258777947173257 18.50916051628480119
0.080000000000012505552 33.32071416768557270 0.080000000000012505552 20.99348488240722332
0.100714032943542974863 38.45158781089025979 0.100714032943542974863 23.76181983405064457
0.126791455396883634421 44.25217344520575580 0.126791455396883634421 26.83798298394346560
0.159620985197506115583 50.79492895060769797 0.159620985197506115583 30.23651032287408214
0.200950914520774404082 58.15391270290764680 0.200950914520774404082 33.95752199977183494
0.252982212813464002465 66.40089431143417187 0.252982212813464002465 37.98542898993085970
0.318485736442809752589 75.60175910718206183 0.318485736442809752589 42.29055242037844664
0.400949786901833249431 85.81329377490480681 0.400949786901833249431 46.83938049266587456
0.504765875584169521062 97.08420861774999366 0.504765875584169521062 51.60057746718015892
0.635462587779443310865 109.45455882353800803 0.635462587779443310865 56.55252737214290448
0.800000000000011368684 122.96004445567297125 0.800000000000011368684 61.69342508656453816
1.007140329435344483500 137.63580269443303905 1.007140329435344483500 67.05382679133711576
1.267914553968907398485 153.52604713509234102 1.267914553968907398485 72.64775135392355310
1.596209851975117999245 170.66512662917779153 1.596209851975117999245 78.57120666011081767
2.009509145207687197399 189.13108206045833981 2.009509145207687197399 84.87631614406829783
2.529822128134725289783 208.96906471495768187 2.529822128134725289783 91.67303181142288793
3.184857364427983839050 230.28873886344575794 3.184857364427983839050 99.11091526514947248
4.009497869018204596614 253.17888535128682292 4.009497869018204596614 107.24566017311815358
5.009497869018190385759 276.90642887747640088 5.009497869018190385759 115.83299926448594874
6.009497869018190385759 297.51782988490987236 6.009497869018190385759 123.37764570954270482
7.009497869018204596614 315.82383046050637176 7.009497869018204596614 130.10647451884312886
8.009497869018190385759 332.33257733326496464 8.009497869018190385759 136.14557415362403958
9.009497869018204596614 347.38705845508968650 9.009497869018204596614 141.60619036715732477
10.009497869018190385759 361.23235426831234918 10.009497869018190385759 146.55999295177051067
11.009497869018190385759 374.05134313345740793 11.009497869018190385759 151.03245832573620078
12.009497869018204596614 385.98531233422681908 12.009497869018204596614 155.12212749292442027
13.009497869018190385759 397.14585490922348754 13.009497869018190385759 158.87126884193190790
14.009497869018204596614 407.62427731118094698 14.009497869018204596614 162.31092375637177838
15.009497869018190385759 417.49423960021857738 15.009497869018190385759 165.47793473978532575
16.009497869018190385759 426.81685917281413367 16.009497869018190385759 168.40434644413531373
17.009497869018204596614 435.64563011949161364 17.009497869018204596614 171.12001082486435166
18.009497869018190385759 444.02685837423115345 18.009497869018190385759 173.65575218507288469
19.009497869018204596614 451.99990386287072397 19.009497869018204596614 176.01948523120046275
20.009497869018190385759 459.60028458739157031 20.009497869018190385759 178.22295967458751420
21.009497869018190385759 466.85710011396645314 21.009497869018190385759 180.27707546137907002
22.009497869018204596614 473.79525128190147143 22.009497869018204596614 182.19972613882328005
23.009497869018190385759 480.43750323824457382 23.009497869018190385759 183.99750747189978028
24.009497869018204596614 486.80489971211579814 24.009497869018204596614 185.68951597723025770
25.009497869018204596614 492.91717118441277989 25.009497869018204596614 187.28464764645798368
26.009497869018190385759 498.79168483356363595 26.009497869018190385759 188.79225481287093658
27.009497869018204596614 504.44428259361035316 27.009497869018204596614 190.22254842277604325
28.009497869018190385759 509.88872332429639300 28.009497869018190385759 191.57891100463027101
29.009497869018190385759 515.13734814459746758 29.009497869018190385759 192.85565880966154850
30.009497869018190385759 520.20160950291744939 30.009497869018190385759 194.07851419462195963
31.009497869018218807469 525.09199829290412254 31.009497869018218807469 195.23871133218810314
32.009497869018190385759 529.81817762088985546 32.009497869018190385759 196.34095420401993692
33.009497869018190385759 534.38909056467184655 33.009497869018190385759 197.38361339179957099
34.009497869018218807469 538.81333595663443248 34.009497869018218807469 198.38835861437598851
35.009497869018190385759 543.09857456422037103 35.009497869018190385759 199.34599121683771727
36.009497869018190385759 547.25188810237727921 36.009497869018190385759 200.26898884017668934
37.009497869018190385759 551.27983666218813141 37.009497869018190385759 201.15652000117449916
38.009497869018218807469 555.18866790638276143 38.009497869018218807469 202.01251611556614307
39.009497869018190385759 558.98409784302225489 39.009497869018190385759 202.84295209546800720
40.009497869018190385759 562.67147917771535504 40.009497869018190385759 203.64523065618138276
41.009497869018218807469 566.25595223956145219 41.009497869018218807469 204.41867362488002868
42.009497869018190385759 569.74222332334784369 42.009497869018190385759 205.16048389677604291
43.009497869018190385759 573.13471567412216245 43.009497869018190385759 205.88610891277275528
44.009497869018218807469 576.43770721524117562 44.009497869018218807469 206.57079339724074885
46.009497869018190385759 582.79113967002547270 46.009497869018190385759 207.88567649116902203
48.009497869018218807469 588.82991296504167167 48.009497869018218807469 209.10523690416064824
50.009497869018190385759 594.57588746234910104 50.009497869018190385759 210.19143105443825448
52.009497869018190385759 600.05079079559345701 52.009497869018190385759 211.17690251874304863
54.009497869018218807469 605.27525240580439458 54.009497869018218807469 212.07563915112015707
56.009497869018190385759 610.26561340893670149 56.009497869018190385759 212.89709695310816073
58.009497869018218807469 615.03611652137669807 58.009497869018218807469 213.67382886778031548
60.009497869018190385759 619.60081441121826629 60.009497869018190385759 214.45857405128310802
62.009497869018190385759 623.97154365197320658 62.009497869018190385759 215.22503716666278706
64.009497869018218807469 628.16065460219056149 64.009497869018218807469 215.97308105264184519
66.009497869018190385759 632.18464487851406375 66.009497869018190385759 216.77782954164720763
68.009497869018190385759 636.05776807109987203 68.009497869018190385759 217.59913304575391635
70.009497869018190385759 639.78863301442402189 70.009497869018190385759 218.30577221775055818
72.009497869018190385759 643.38618391025863730 72.009497869018190385759 218.88582718543887040
74.009497869018218807469 646.85870459537966326 74.009497869018218807469 219.43414932932060424
76.009497869018190385759 650.21285452461779641 76.009497869018190385759 219.95229613876111330
78.009497869018190385759 653.45716311323212722 78.009497869018190385759 220.53706773124068263
80.009497869018218807469 656.59692219139128611 80.009497869018218807469 220.97083718957497922
82.009497869018190385759 659.63209864375096458 82.009497869018190385759 221.46404512411695009
84.009497869018218807469 662.56416917872832073 84.009497869018218807469 221.89390830779876751
86.009497869018190385759 665.39555526580409150 86.009497869018190385759 222.13677094733421313
88.009497869018190385759 668.13307808206968730 88.009497869018190385759 222.43042287604995977
91.009497869018218807469 672.06969649871632555 91.009497869018218807469 222.77613141647148609
94.009497869018218807469 675.81614210436316625 94.009497869018218807469 223.27577050702359429
97.009497869018218807469 679.39806850654463233 97.009497869018218807469 224.05350974555383914
99.504748934509137825444 682.27057407198913097 99.504748934509137825444 224.21412493306885949
nan nan nan nan

