Time Pressure difference Time.1 Pressure.1 difference.1
(hr) (psi) (hr) (psi)
0.000200000000006639311 0.86556131922337187 0.000200000000006639311 0.68999453208906658
0.000399999999999067768 1.73063241788703692 0.000399999999999067768 1.80608023828352127
0.000600000000005707079 2.59528805604483637 0.000600000000005707079 2.64247387628253616
0.000799999999998135536 3.45956404332506295 0.000799999999998135536 3.49396007177160595
0.001007140329434719206 4.35431359827962350 0.001007140329434719206 4.38781883742934387
0.001267914553963578328 5.48020822304159605 0.001267914553963578328 5.52105637937658145
0.001596209851982166583 6.89682064673048156 0.001596209851982166583 6.94620798880188595
0.002009509145210586212 8.67900235521062768 0.002009509145210586212 8.73805920388531199
0.002529822128138903281 10.92076190580664985 0.002529822128138903281 10.99033450253727828
0.003184857364445292660 13.74010588303348790 0.003184857364445292660 13.82037398909558590
0.004009497869020606231 17.28506949629431944 0.004009497869020606231 17.37489949386301902
0.005047658755842121536 21.74121070036359882 0.005047658755842121536 21.83708734399931473
0.006354625877804664924 27.34089442391540103 0.006354625877804664924 27.43518704070161363
0.008000000000009777068 34.37475023577891875 0.008000000000009777068 34.45293499081712696
0.010071403294347192059 43.20574364300303927 0.010071403294347192059 43.24199830890553642
0.012679145539692626699 54.28635082831738856 0.012679145539692626699 54.23662639099340765
0.015962098519750611558 68.17935615797523496 0.015962098519750611558 67.97055780155450577
0.020095091452091651263 85.58278003214361718 0.020095091452091651263 85.09598233092025055
0.025298221281346400247 107.35935796393424368 0.025298221281346400247 106.40392759518256582
0.031848573644282396344 134.57077862609088470 0.031848573644282396344 132.84473438985895655
0.040094978690191851456 168.51647265117424013 0.040094978690191851456 165.54618160111866132
0.050476587558421215363 210.77601637789265965 0.050476587558421215363 205.82516379807492513
0.063546258777947173257 263.25302696992417850 0.063546258777947173257 255.18643350111955215
0.079999999999998294697 328.21658608783866384 0.079999999999998294697 315.29862189425938368
0.100714032943542974863 408.33351107464926599 0.100714032943542974863 387.93344055691488848
0.126791455396897845276 506.68095843006676660 0.126791455396897845276 474.84872388127286058
0.159620985197506115583 626.72371128813631458 0.159620985197506115583 577.59029152811103813
0.200950914520774404082 772.23407576767033333 0.200950914520774404082 697.18285420418226295
0.252982212813464002465 947.12506088530074067 0.252982212813464002465 833.67952963248899323
0.318485736442795541734 1155.16095344744712747 0.318485736442795541734 985.54979192933876675
0.400949786901819038576 1399.50718972549839236 0.400949786901819038576 1148.91994679139497748
0.504765875584169521062 1682.09116645228414200 0.504765875584169521062 1316.75903826643070715
0.635462587779443310865 2002.78042183118805042 0.635462587779443310865 1478.24644483449060317
0.799999999999997157829 2358.46099142109324021 0.799999999999997157829 1618.75512439357407857
1.007140329435330272645 2742.22437265275630125 1.007140329435330272645 1721.04208000549510871
1.267914553968893187630 3143.01819907642766339 1.267914553968893187630 1768.13993561507049890
1.596209851975103788391 3546.19088058370334693 1.596209851975103788391 1747.84076177602287316
2.009509145207687197399 3935.22179542233698157 2.009509145207687197399 1657.55818924003483517
2.529822128134711078928 4294.48995729560192558 2.529822128134711078928 1507.32150321195967990
3.184857364427983839050 4612.32632797931364621 3.184857364427983839050 1318.71385520567400818
4.009497869018190385759 4883.20496446904508048 4.009497869018190385759 1119.19326384517648876
5.009497869018190385759 5101.41207552634932654 5.009497869018190385759 939.04696562513379376
6.009497869018190385759 5251.56295500842861657 6.009497869018190385759 812.68390331249827341
7.009497869018204596614 5362.04845491124069667 7.009497869018204596614 724.77434655667889274
8.009497869018190385759 5447.74308995123828936 8.009497869018190385759 662.90238779619880916
9.009497869018204596614 5516.98592182693664654 9.009497869018204596614 619.54118058111725986
10.009497869018190385759 5574.73470284128325147 10.009497869018190385759 588.60634657602588504
11.009497869018190385759 5624.09754476958278246 11.009497869018190385759 563.51378945255521558
12.009497869018190385759 5667.11089068215733278 12.009497869018190385759 544.38077027878557601
13.009497869018190385759 5705.16655287152661913 13.009497869018190385759 529.48197274869869489
14.009497869018204596614 5739.24943668337436975 14.009497869018204596614 517.64894224225474773
15.009497869018190385759 5770.07861966795007902 15.009497869018190385759 508.07277531774661838
16.009497869018190385759 5798.19370583299951250 16.009497869018190385759 500.18717130347869215
17.009497869018190385759 5824.00963272143508220 17.009497869018190385759 493.73862699078756577
18.009497869018190385759 5847.85223742471498554 18.009497869018190385759 488.09276812904408871
19.009497869018204596614 5869.98124416621521959 19.009497869018204596614 483.42309245605804335
20.009497869018190385759 5890.60810123758074042 20.009497869018190385759 479.14004173108298801
21.009497869018204596614 5909.90750107103485789 21.009497869018204596614 475.36706063782975207
22.009497869018190385759 5928.02431745760077320 22.009497869018190385759 472.00792660080861651
23.009497869018190385759 5945.08117537212092429 23.009497869018190385759 469.04070642826866333
24.009497869018190385759 5961.18267179837312142 24.009497869018190385759 466.29142747064310015
25.009497869018190385759 5976.41808940156442986 25.009497869018190385759 463.77863193975986178
26.009497869018204596614 5990.86550203933893499 26.009497869018204596614 461.51640411538340913
27.009497869018190385759 6004.59213058220393577 27.009497869018190385759 459.36117422166284996
28.009497869018190385759 6017.65770449918363738 28.009497869018190385759 457.35129299306157691
29.009497869018190385759 6030.11425213800703204 29.009497869018190385759 455.48112218540512686
30.009497869018190385759 6042.00847713996881794 30.009497869018190385759 453.70083670638439344
31.009497869018190385759 6053.38160539134514693 31.009497869018190385759 452.01571212273677247
32.009497869018190385759 6064.27075567985411908 32.009497869018190385759 450.41194604322174655
33.009497869018190385759 6074.70925367615109280 33.009497869018190385759 448.88936505698103474
34.009497869018190385759 6084.72703117034598108 34.009497869018190385759 447.41783918156352229
35.009497869018190385759 6094.35145074820047739 35.009497869018190385759 445.99801549310546989
36.009497869018190385759 6103.60708469638029783 36.009497869018190385759 444.63055055698544038
37.009497869018190385759 6112.51646398220418632 37.009497869018190385759 443.30742847330554923
38.009497869018190385759 6121.10019150890548190 38.009497869018190385759 442.02373016111516790
39.009497869018190385759 6129.37701381667011447 39.009497869018190385759 440.76574179398215847
40.009497869018190385759 6137.36424947479918046 40.009497869018190385759 439.52433789722459778
41.009497869018190385759 6145.07784620052188984 41.009497869018190385759 438.34631844084799468
42.009497869018190385759 6152.53244306349824910 42.009497869018190385759 437.16752853193747796
43.009497869018190385759 6159.74162399597935291 43.009497869018190385759 436.04035073725412985
44.009497869018218807469 6166.71799028353143513 44.009497869018218807469 434.90504090809656645
46.009497869018190385759 6180.01808659717153205 46.009497869018190385759 432.70172244223806501
48.009497869018190385759 6192.51673319798283046 48.009497869018190385759 430.58162324054802639
50.009497869018190385759 6204.28702541641087009 50.009497869018190385759 428.48277397211785456
52.009497869018190385759 6215.39288894099536265 52.009497869018190385759 426.44337205862342444
54.009497869018190385759 6225.89075051816507766 54.009497869018190385759 424.47327772525045475
56.009497869018190385759 6235.83034863593456976 56.009497869018190385759 422.54270935910136586
58.009497869018218807469 6245.25615682194347755 58.009497869018218807469 420.55786912913828246
60.009497869018190385759 6254.20760032034104370 60.009497869018190385759 418.70231266937742021
62.009497869018190385759 6262.72031546348534903 62.009497869018190385759 416.87992459796703315
64.009497869018190385759 6270.82613176804534305 64.009497869018190385759 415.08883064727962164
66.009497869018190385759 6278.55390530821205175 66.009497869018190385759 413.29854114626243700
68.009497869018190385759 6285.92984033244010789 68.009497869018190385759 411.52111093480448289
70.009497869018190385759 6292.97741801688243868 70.009497869018190385759 409.82969302224802277
72.009497869018218807469 6299.71847033629728685 72.009497869018218807469 408.14100921167363367
74.009497869018190385759 6306.17263958580315375 74.009497869018190385759 406.50220727524930453
76.009497869018190385759 6312.35789750480216753 76.009497869018190385759 404.89762909180876704
78.009497869018190385759 6318.29099735117051750 78.009497869018190385759 403.31520173342624958
80.009497869018190385759 6323.98704601238387113 80.009497869018190385759 401.77720005518341395
82.009497869018218807469 6329.46001353393421596 82.009497869018218807469 400.27867820586249081
84.009497869018190385759 6334.72301187910488807 84.009497869018190385759 398.83116042978440419
86.009497869018190385759 6339.78788818148132123 86.009497869018190385759 397.38921068448445340
88.009497869018190385759 6344.66562054216592514 88.009497869018190385759 396.00547236986278676
91.009497869018218807469 6351.65399686168257176 91.009497869018218807469 393.97841178249996119
94.009497869018190385759 6358.27616322108133318 94.009497869018190385759 392.03128305491486572
97.009497869018190385759 6364.56057849889202771 97.009497869018190385759 390.14933627787740988
99.504748934509109403734 6369.54893537520092650 99.504748934509109403734 388.94219412793393076
nan nan nan nan

