Time Pressure difference Time.1 Pressure.1 difference.1
(hr) (psi) (hr) (psi)
0.000200000000006639311 0.22471303479837540 0.000200000000006639311 0.17913319583081536
0.000399999999999067768 0.44929880079759615 0.000399999999999067768 0.46888621570822187
0.000600000000005707079 0.67377670685779401 0.000600000000005707079 0.68602687172719690
0.000799999999998135536 0.89815604970939134 0.000799999999998135536 0.90708578786378224
0.001007140329434719206 1.13044679955336380 0.001007140329434719206 1.13914527510184871
0.001267914553963578328 1.42274636559733758 0.001267914553963578328 1.43335117541507406
0.001596209851982166583 1.79052074482425949 0.001596209851982166583 1.80334245863125875
0.002009509145210586212 2.25320253452583596 0.002009509145210586212 2.26853460100868665
0.002529822128138903281 2.83519780246903430 0.002529822128138903281 2.85325991892794706
0.003184857364445292660 3.56714287347984804 0.003184857364445292660 3.58798170870750788
0.004009497869020606231 4.48746996538410237 0.004009497869020606231 4.51079121475289924
0.005047658755842121536 5.64435277797901147 0.005047658755842121536 5.66924382969212992
0.006354625877804664924 7.09811682159342183 0.006354625877804664924 7.12259663556676514
0.008000000000009777068 8.92421400351952698 0.008000000000009777068 8.94451196876983090
0.010071403294347192059 11.21687575347194255 0.010071403294347192059 11.22628802250432045
0.012679145539692626699 14.09357184965932319 0.012679145539692626699 14.08066262073867314
0.015962098519750611558 17.70040977178203079 0.015962098519750611558 17.64620250617280561
0.020095091452091651263 22.21860635449882437 0.020095091452091651263 22.09222618206583633
0.025298221281346400247 27.87214100986754417 0.025298221281346400247 27.62409658721085748
0.031848573644282396344 34.93664445100436922 0.031848573644282396344 34.48853681275183902
0.040094978690191851456 43.74946886136254420 0.040094978690191851456 42.97833560798272856
0.050476587558421215363 54.72069655964521218 0.050476587558421215363 53.43537906296176487
0.063546258777947173257 68.34453584796108316 0.063546258777947173257 66.25032408202142165
0.079999999999998294697 85.21007523434272457 0.079999999999998294697 81.85637299177888337
0.100714032943542974863 106.00966152899547978 0.100714032943542974863 100.71348937535290702
0.126791455396897845276 131.54217190011348748 0.126791455396897845276 123.27803408456122725
0.159620985197506115583 162.70711735365077288 0.159620985197506115583 149.95132568518266680
0.200950914520774404082 200.48384659352979043 0.200950914520774404082 180.99939484147040503
0.252982212813464002465 245.88823696060691759 0.252982212813464002465 216.43603173151157648
0.318485736442795541734 299.89755522193337356 0.318485736442795541734 255.86388828934755679
0.400949786901819038576 363.33359733258129154 0.400949786901819038576 298.27729387853526077
0.504765875584169521062 436.69674513665069071 0.504765875584169521062 341.85090416532335666
0.635462587779443310865 519.95260951386615034 0.635462587779443310865 383.77551933203125145
0.799999999999997157829 612.29275738816841113 0.799999999999997157829 420.25373421756250991
1.007140329435330272645 711.92363520792719100 1.007140329435330272645 446.80900153988812917
1.267914553968893187630 815.97587860638020629 1.267914553968893187630 459.03632943852790049
1.596209851975103788391 920.64570938230770025 1.596209851975103788391 453.76635161492902171
2.009509145207687197399 1021.64411996541457484 2.009509145207687197399 430.32760682193213597
2.529822128134711078928 1114.91566199020439853 2.529822128134711078928 391.32385179541262232
3.184857364427983839050 1197.43087361001403224 3.184857364427983839050 342.35840471685764896
4.009497869018190385759 1267.75513500638658115 4.009497869018190385759 290.55978965211312470
5.009497869018190385759 1324.40505806934061184 5.009497869018190385759 243.79103915267899083
6.009497869018190385759 1363.38653639641893278 6.009497869018190385759 210.98524412920627924
7.009497869018204596614 1392.07027194811075788 7.009497869018204596614 188.16257074067624444
8.009497869018190385759 1414.31791758349459087 8.009497869018190385759 172.09965837016699197
9.009497869018204596614 1432.29442201276242486 9.009497869018204596614 160.84242188163619858
10.009497869018190385759 1447.28689400687153466 10.009497869018190385759 152.81126305339134319
11.009497869018190385759 1460.10224719979555630 11.009497869018190385759 146.29684918479796352
12.009497869018190385759 1471.26917354248303127 12.009497869018190385759 141.32962305314623563
13.009497869018190385759 1481.14900891856950693 13.009497869018190385759 137.46166600206601061
14.009497869018204596614 1489.99744990818362567 14.009497869018204596614 134.38962923596997712
15.009497869018190385759 1498.00118010610231067 15.009497869018190385759 131.90350897672269070
16.009497869018190385759 1505.30028901433638566 16.009497869018190385759 129.85628485763390927
17.009497869018190385759 1512.00250080268028796 17.009497869018190385759 128.18214354568522140
18.009497869018190385759 1518.19240779295478205 18.009497869018190385759 126.71639172580954380
19.009497869018204596614 1523.93743838930595302 19.009497869018204596614 125.50407207993816883
20.009497869018190385759 1529.29248782129502615 20.009497869018190385759 124.39212621864652419
21.009497869018204596614 1534.30290893190317547 21.009497869018204596614 123.41260228097505092
22.009497869018190385759 1539.00631318610794551 22.009497869018190385759 122.54051940597915404
23.009497869018190385759 1543.43453591391607915 23.009497869018190385759 121.77018339964666893
24.009497869018190385759 1547.61473210150074920 24.009497869018190385759 121.05642828564772628
25.009497869018190385759 1551.57008090232920949 25.009497869018190385759 120.40406790743764986
26.009497869018204596614 1555.32085149098224974 26.009497869018204596614 119.81675876072452525
27.009497869018190385759 1558.88449543961064592 27.009497869018190385759 119.25722792293170471
28.009497869018190385759 1562.27651943728801598 28.009497869018190385759 118.73543183473714180
29.009497869018190385759 1565.51043084352090773 29.009497869018190385759 118.24990672121094804
30.009497869018190385759 1568.59835464210732425 30.009497869018190385759 117.78771722184980320
31.009497869018190385759 1571.55099370736843412 31.009497869018190385759 117.35023295494127638
32.009497869018190385759 1574.37798464765432982 32.009497869018190385759 116.93387060737487104
33.009497869018190385759 1577.08797931977005646 33.009497869018190385759 116.53858515902392412
34.009497869018190385759 1579.68874847691677132 34.009497869018190385759 116.15655440290591116
35.009497869018190385759 1582.18739586732112912 35.009497869018190385759 115.78794632994085134
36.009497869018190385759 1584.59030083463721894 36.009497869018190385759 115.43293139460199370
37.009497869018190385759 1586.90331276461074594 37.009497869018190385759 115.08942854595431982
38.009497869018190385759 1589.13178048788881824 38.009497869018190385759 114.75616071490490810
39.009497869018190385759 1591.28057089471235486 39.009497869018190385759 114.42956758112998727
40.009497869018190385759 1593.35418015211143938 40.009497869018190385759 114.10728003101023376
41.009497869018190385759 1595.35674853282785080 41.009497869018190385759 113.80144805675860198
42.009497869018190385759 1597.29207656456196673 42.009497869018190385759 113.49541606117607273
43.009497869018190385759 1599.16369084511006804 43.009497869018190385759 113.20278336447942991
44.009497869018218807469 1600.97486286207072226 44.009497869018218807469 112.90803946652506795
46.009497869018190385759 1604.42777248195807260 46.009497869018190385759 112.33602409558103830
48.009497869018190385759 1607.67261342639926625 48.009497869018190385759 111.78561372591150302
50.009497869018190385759 1610.72836236772195662 50.009497869018190385759 111.24072016583829736
52.009497869018190385759 1613.61161539814293064 52.009497869018190385759 110.71126005368108736
54.009497869018190385759 1616.33702176913902804 54.009497869018190385759 110.19979325559386041
56.009497869018190385759 1618.91749435740621266 56.009497869018190385759 109.69858800668977494
58.009497869018218807469 1621.36457917492771230 58.009497869018218807469 109.18329294698783372
60.009497869018190385759 1623.68851162162695800 60.009497869018190385759 108.70156194301144126
62.009497869018190385759 1625.89854343763568068 62.009497869018190385759 108.22844196293374353
64.009497869018190385759 1628.00293805516548673 64.009497869018190385759 107.76344641804374191
66.009497869018190385759 1630.00918695501650291 66.009497869018190385759 107.29865972066427560
68.009497869018190385759 1631.92409316322982704 68.009497869018190385759 106.83721149268961881
70.009497869018190385759 1633.75375275438273093 70.009497869018190385759 106.39809338077591860
72.009497869018218807469 1635.50383364500044081 72.009497869018218807469 105.95968508379988293
74.009497869018190385759 1637.17943527708348483 74.009497869018190385759 105.53422688876663926
76.009497869018190385759 1638.78522339066967106 76.009497869018190385759 105.11765370652727825
78.009497869018190385759 1640.32554738924613957 78.009497869018190385759 104.70683121925489445
80.009497869018190385759 1641.80432925321520088 80.009497869018190385759 104.30754232201877585
82.009497869018218807469 1643.22519582130985327 82.009497869018218807469 103.91850299575276040
84.009497869018190385759 1644.59155116092142634 84.009497869018190385759 103.54270511157864121
86.009497869018190385759 1645.90647097019223111 86.009497869018190385759 103.16835277385654024
88.009497869018190385759 1647.17280533306234247 88.009497869018190385759 102.80911301909900146
91.009497869018218807469 1648.98709533909072888 91.009497869018218807469 102.28285690507209438
94.009497869018190385759 1650.70631160547304717 94.009497869018190385759 101.77735233156442973
97.009497869018190385759 1652.33784249490463480 97.009497869018190385759 101.28876999521817481
99.504748934509109403734 1653.63289668394645560 99.504748934509109403734 100.97537732167515401
nan nan nan nan

