Time Pressure difference Time.1 Pressure.1 difference.1
(hr) (psi) (hr) (psi)
0.000200000000006639311 0.50768500454447774 0.000200000000006639311 0.40470833132147171
0.000399999999999067768 1.01508247587605038 0.000399999999999067768 1.05933552437783463
0.000600000000005707079 1.52223626364168285 0.000600000000005707079 1.54991256205033379
0.000799999999998135536 2.02916737156566196 0.000799999999998135536 2.04934196517373035
0.001007140329434719206 2.55397239899093265 0.001007140329434719206 2.57362451041528795
0.001267914553963578328 3.21435290005324426 0.001267914553963578328 3.23831191482664860
0.001596209851982166583 4.04525057163999424 0.001596209851982166583 4.07421814727802900
0.002009509145210586212 5.09056868911392524 0.002009509145210586212 5.12520780227888473
0.002529822128138903281 6.40544688705966969 0.002529822128138903281 6.44625389091128742
0.003184857364445292660 8.05910056601002722 0.003184857364445292660 8.10618089745029557
0.004009497869020606231 10.13835806994186051 0.004009497869020606231 10.19104681851580985
0.005047658755842121536 12.75205627617480353 0.005047658755842121536 12.80829161523036674
0.006354625877804664924 16.03648615248884113 0.006354625877804664924 16.09179239887306423
0.008000000000009777068 20.16211311906263504 0.008000000000009777068 20.20797148499850593
0.010071403294347192059 25.34183040599216596 0.010071403294347192059 25.36309516195420599
0.012679145539692626699 31.84103269737847342 0.012679145539692626699 31.81186740240959310
0.015962098519750611558 39.98981466958162656 0.015962098519750611558 39.86734640283486186
0.020095091452091651263 50.19759213423808575 0.020095091452091651263 49.91206655948207782
0.025298221281346400247 62.97039265192296398 0.025298221281346400247 62.40999599332823777
0.031848573644282396344 78.93093746338024630 0.031848573644282396344 77.91854613251341277
0.040094978690191851456 98.84139261270797761 0.040094978690191851456 97.09920266988690685
0.050476587558421215363 123.62824037549472678 0.050476587558421215363 120.72437492002472936
0.063546258777947173257 154.40802543428245031 0.063546258777947173257 149.67665811123359276
0.079999999999998294697 192.51165145536688783 0.079999999999998294697 184.93476861105600051
0.100714032943542974863 239.50330938032311678 0.100714032943542974863 227.53788340357510833
0.126791455396897845276 297.18786984840454579 0.126791455396897845276 278.51703996882349657
0.159620985197506115583 367.59756142861840544 0.159620985197506115583 338.77892099244968449
0.200950914520774404082 452.94498674834511576 0.200950914520774404082 408.92455871591459982
0.252982212813464002465 555.52527609618596216 0.252982212813464002465 488.98510872674836492
0.318485736442795541734 677.54632846436800264 0.318485736442795541734 578.06285872778516932
0.400949786901819038576 820.86479397360960775 0.400949786901819038576 673.88573802187602269
0.504765875584169521062 986.61116493835902475 0.504765875584169521062 772.32982052165652931
0.635462587779443310865 1174.70774742021603743 0.635462587779443310865 867.04839552792248014
0.799999999999997157829 1383.32808150660275714 0.799999999999997157829 949.46214026930795171
1.007140329435330272645 1608.42006472902085079 1.007140329435330272645 1009.45737384937694969
1.267914553968893187630 1843.50105907367378677 1.267914553968893187630 1037.08207762037795874
1.596209851975103788391 2079.97734341928799040 1.596209851975103788391 1025.17583142632111048
2.009509145207687197399 2308.15893769964031890 2.009509145207687197399 972.22163022732820536
2.529822128134711078928 2518.88353264453598968 2.529822128134711078928 884.10203553778410424
3.184857364427983839050 2705.30678852632809139 3.184857364427983839050 773.47639584178944006
4.009497869018190385759 2864.18752723665102167 4.009497869018190385759 656.44989513995926700
5.009497869018190385759 2992.17439045295486721 5.009497869018190385759 550.78716253012657944
6.009497869018190385759 3080.24365630302054342 6.009497869018190385759 476.67036636598459154
7.009497869018204596614 3145.04765143832446483 7.009497869018204596614 425.10803019189819452
8.009497869018190385759 3195.31085083678408409 8.009497869018190385759 388.81774668815501173
9.009497869018204596614 3235.92443491772246489 9.009497869018204596614 363.38473091777069612
10.009497869018190385759 3269.79631608959880396 10.009497869018190385759 345.24026097247673306
11.009497869018190385759 3298.74952145139013737 11.009497869018190385759 330.52251112121024335
12.009497869018190385759 3323.97850318857263119 12.009497869018190385759 319.30025949044153322
13.009497869018190385759 3346.29961274195329679 13.009497869018190385759 310.56154170837135098
14.009497869018204596614 3366.29053497774793868 14.009497869018204596614 303.62101419978404238
15.009497869018190385759 3384.37303653600929465 15.009497869018190385759 298.00422398444754890
16.009497869018190385759 3400.86361592127877884 16.009497869018190385759 293.37901393761734425
17.009497869018190385759 3416.00564996161074305 17.009497869018190385759 289.59669467728883774
18.009497869018190385759 3429.99025464334226854 18.009497869018190385759 286.28518130645858264
19.009497869018204596614 3442.96976821287626080 19.009497869018204596614 283.54623692134174462
20.009497869018190385759 3455.06821322588848489 20.009497869018190385759 281.03406293842363084
21.009497869018204596614 3466.38805351281826006 21.009497869018204596614 278.82106441257326424
22.009497869018190385759 3477.01426312416970177 22.009497869018190385759 276.85080310239732171
23.009497869018190385759 3487.01876632403264011 23.009497869018190385759 275.11041434734988798
24.009497869018190385759 3496.46291326635355290 24.009497869018190385759 273.49785649720411129
25.009497869018190385759 3505.39907166822513318 25.009497869018190385759 272.02400527235914751
26.009497869018204596614 3513.87303484999711145 26.009497869018204596614 270.69712164459986070
27.009497869018190385759 3521.92423043763847090 27.009497869018190385759 269.43299641847528392
28.009497869018190385759 3529.58769206202123314 28.009497869018190385759 268.25412377477653081
29.009497869018190385759 3536.89393635017677298 29.009497869018190385759 267.15719666643957453
30.009497869018190385759 3543.87035678402025951 30.009497869018190385759 266.11299076047549761
31.009497869018190385759 3550.54113393146189992 31.009497869018190385759 265.12460037968213555
32.009497869018190385759 3556.92803938914494211 32.009497869018190385759 264.18392989073578292
33.009497869018190385759 3563.05061994466586839 33.009497869018190385759 263.29087758149853471
34.009497869018190385759 3568.92643174414524765 34.009497869018190385759 262.42777105841707908
35.009497869018190385759 3574.57152399654023611 35.009497869018190385759 261.59498985653306136
36.009497869018190385759 3580.00030929306922189 36.009497869018190385759 260.79291907669340844
37.009497869018190385759 3585.22600291263916006 37.009497869018190385759 260.01685708530419561
38.009497869018190385759 3590.26068925041545299 38.009497869018190385759 259.26391865219255806
39.009497869018190385759 3595.11536387323894814 39.009497869018190385759 258.52606009070109394
40.009497869018190385759 3599.80018478810325178 40.009497869018190385759 257.79792895894905769
41.009497869018190385759 3604.32450594453712256 41.009497869018190385759 257.10697523934351238
42.009497869018190385759 3608.69691371993621942 42.009497869018190385759 256.41556961969405393
43.009497869018190385759 3612.92537561302651739 43.009497869018190385759 255.75443649012018454
44.009497869018218807469 3617.01728276245603411 44.009497869018218807469 255.08853360955663447
46.009497869018190385759 3624.81830079257179023 46.009497869018190385759 253.79620258631271668
48.009497869018190385759 3632.14923774112412502 48.009497869018190385759 252.55268286224449525
50.009497869018190385759 3639.05296683077949638 50.009497869018190385759 251.32162704133838815
52.009497869018190385759 3645.56698293654517329 52.009497869018190385759 250.12543938053875081
54.009497869018190385759 3651.72438251546191168 54.009497869018190385759 248.96990328115649049
56.009497869018190385759 3657.55433910376996209 56.009497869018190385759 247.83755068178061265
58.009497869018218807469 3663.08293813594764288 58.009497869018218807469 246.67336554689842387
60.009497869018190385759 3668.33330403404625031 60.009497869018190385759 245.58501031569252859
62.009497869018190385759 3673.32633887762131053 62.009497869018190385759 244.51610961996138371
64.009497869018190385759 3678.08071190241116710 64.009497869018190385759 243.46556412965438199
66.009497869018190385759 3682.61334830577834509 66.009497869018190385759 242.41549048001928668
68.009497869018190385759 3686.93961788729711770 68.009497869018190385759 241.37295929829875263
70.009497869018190385759 3691.07329325990167490 70.009497869018190385759 240.38087763804929864
72.009497869018218807469 3695.02717971648280582 72.009497869018218807469 239.39039963377010167
74.009497869018190385759 3698.81279821859607182 74.009497869018190385759 238.42917926721352728
76.009497869018190385759 3702.44068988262415587 76.009497869018190385759 237.48803244808016188
78.009497869018190385759 3705.92068113866753265 78.009497869018190385759 236.55987793979809908
80.009497869018190385759 3709.26163275726412394 80.009497869018190385759 235.65778080159799401
82.009497869018218807469 3712.47173870740334678 82.009497869018218807469 234.77884010151549887
84.009497869018190385759 3715.55868965985928298 84.009497869018190385759 233.92981525208509197
86.009497869018190385759 3718.52943441413799519 86.009497869018190385759 233.08405626686106871
88.009497869018190385759 3721.39041204877048585 88.009497869018190385759 232.27244052463109369
91.009497869018218807469 3725.48936354387160463 91.009497869018218807469 231.08349152627400258
94.009497869018190385759 3729.37351881236509143 94.009497869018190385759 229.94142563797890944
97.009497869018190385759 3733.05957008108089212 97.009497869018190385759 228.83759147067809181
99.504748934509109403734 3735.98543324891579687 99.504748934509109403734 228.12955617119200724
nan nan nan nan

