Time Pressure difference Time.1 Pressure.1 difference.1
(hr) (psi) (hr) (psi)
0.000200000000006639311 0.59923475946233440 0.000200000000006639311 0.47768852221550762
0.000399999999999067768 1.19813013546025648 0.000399999999999067768 1.25036324188859171
0.000600000000005707079 1.79673788495411735 0.000600000000005707079 1.82940499127252498
0.000799999999998135536 2.39508279922504386 0.000799999999998135536 2.41889543430341947
0.001007140329434719206 3.01452479880896984 0.001007140329434719206 3.03772073360492989
0.001267914553963578328 3.79399030825956673 0.001267914553963578328 3.82226980110686387
0.001596209851982166583 4.77472198619802501 0.001596209851982166583 4.80891322301669000
0.002009509145210586212 6.00854009206889561 0.002009509145210586212 6.04942560268983076
0.002529822128138903281 7.56052747325075813 0.002529822128138903281 7.60869311714119156
0.003184857364445292660 9.51238099594626085 0.003184857364445292660 9.56795122322002101
0.004009497869020606231 11.96658657435760631 0.004009497869020606231 12.02877657267439737
0.005047658755842121536 15.05160740794402940 0.005047658755842121536 15.11798354584568038
0.006354625877804664924 18.92831152424912489 0.006354625877804664924 18.99359102817804157
0.008000000000009777068 23.79790400938540529 0.008000000000009777068 23.85203191671954670
0.010071403294347192059 29.91166867592518130 0.010071403294347192059 29.93676806001152002
0.012679145539692626699 37.58285826575819755 0.012679145539692626699 37.54843365530312838
0.015962098519750611558 47.20109272475207973 0.015962098519750611558 47.05654001646081497
0.020095091452091651263 59.24961694533020307 0.020095091452091651263 58.91260315217556354
0.025298221281346400247 74.32570935964677972 0.025298221281346400247 73.66425756589562468
0.031848573644282396344 93.16438520267831791 0.031848573644282396344 91.96943150067156125
0.040094978690191851456 116.66525029696678928 0.040094978690191851456 114.60889495462060950
0.050476587558421215363 145.92185749238723247 0.050476587558421215363 142.49434416789804914
0.063546258777947173257 182.25209559456288844 0.063546258777947173257 176.66753088539047667
0.079999999999998294697 227.22686729158058938 0.079999999999998294697 218.28366131141035567
0.100714032943542974863 282.69243074398792714 0.100714032943542974863 268.56930500094108538
0.126791455396897845276 350.77912506696929995 0.126791455396897845276 328.74142422549664388
0.159620985197506115583 433.88564627640204208 0.159620985197506115583 399.87020182715377814
0.200950914520774404082 534.62359091607947903 0.200950914520774404082 482.66505291058774674
0.252982212813464002465 655.70196522828518937 0.252982212813464002465 577.16275128403083272
0.318485736442795541734 799.72681392515562493 0.318485736442795541734 682.30370210492685601
0.400949786901819038576 968.88959288688340621 0.400949786901819038576 795.40611700942736206
0.504765875584169521062 1164.52465369773517523 0.504765875584169521062 911.60241110752895111
0.635462587779443310865 1386.54029203697632511 0.635462587779443310865 1023.40138488541663264
0.799999999999997157829 1632.78068636844909634 0.799999999999997157829 1120.67662458016684468
1.007140329435330272645 1898.46302722113932759 1.007140329435330272645 1191.49067077303493534
1.267914553968893187630 2175.93567628368055011 1.267914553968893187630 1224.09687850274099219
1.596209851975103788391 2455.05522501948735226 1.596209851975103788391 1210.04360430647739122
2.009509145207687197399 2724.38431990777235114 2.009509145207687197399 1147.54028485848584751
2.529822128134711078928 2973.10843197387839609 2.529822128134711078928 1043.53027145443365953
3.184857364427983839050 3193.14899629337060105 3.184857364427983839050 912.95574591162039724
4.009497869018190385759 3380.68036001703103466 4.009497869018190385759 774.82610573896829465
5.009497869018190385759 3531.74682151824163157 5.009497869018190385759 650.10943774047723309
6.009497869018190385759 3635.69743039045079058 6.009497869018190385759 562.62731767788341131
7.009497869018204596614 3712.18739186162883925 7.009497869018204596614 501.76685530846998518
8.009497869018190385759 3771.51444688931906057 8.009497869018190385759 458.93242232044531193
9.009497869018204596614 3819.45179203403313295 9.009497869018204596614 428.91312501769652954
10.009497869018190385759 3859.43171735165742575 10.009497869018190385759 407.49670147571026746
11.009497869018190385759 3893.60599253278815013 11.009497869018190385759 390.12493115946119815
12.009497869018190385759 3923.38446277995444689 12.009497869018190385759 376.87899480838996169
13.009497869018190385759 3949.73069044951853357 13.009497869018190385759 366.56444267217602828
14.009497869018204596614 3973.32653308848966844 14.009497869018204596614 358.37234462925329126
15.009497869018190385759 3994.66981361627267688 15.009497869018190385759 351.74269060459386083
16.009497869018190385759 4014.13410403822990702 16.009497869018190385759 346.28342628702375805
17.009497869018190385759 4032.00666880714697982 17.009497869018190385759 341.81904945516055250
18.009497869018190385759 4048.51308744787911564 18.009497869018190385759 337.91037793549207890
19.009497869018204596614 4063.83316903814875332 19.009497869018204596614 334.67752554650178354
20.009497869018190385759 4078.11330085678673640 20.009497869018190385759 331.71233658305743575
21.009497869018204596614 4091.47442381840846792 21.009497869018204596614 329.10027274926676455
22.009497869018190385759 4104.01683516295452137 22.009497869018190385759 326.77471841594444868
23.009497869018190385759 4115.82542910377651424 23.009497869018190385759 324.72048906572445048
24.009497869018190385759 4126.97261893733502802 24.009497869018190385759 322.81714209506060342
25.009497869018190385759 4137.52021573954425548 25.009497869018190385759 321.07751441983373297
26.009497869018204596614 4147.52227064261933265 26.009497869018204596614 319.51135669526541960
27.009497869018190385759 4157.02532117229475261 27.009497869018190385759 318.01927446115121256
28.009497869018190385759 4166.07071849943440611 28.009497869018190385759 316.62781822596571146
29.009497869018190385759 4174.69448224938878411 29.009497869018190385759 315.33308458989586143
30.009497869018190385759 4182.92894571228680434 30.009497869018190385759 314.10057925826612291
31.009497869018190385759 4190.80264988631552114 31.009497869018190385759 312.93395454651010823
32.009497869018190385759 4198.34129239374487952 32.009497869018190385759 311.82365495299967506
33.009497869018190385759 4205.56794485271984740 33.009497869018190385759 310.76956042406379765
34.009497869018190385759 4212.50332927177805686 34.009497869018190385759 309.75081174108242976
35.009497869018190385759 4219.16638897952270781 35.009497869018190385759 308.76785687984227025
36.009497869018190385759 4225.57413555903258384 36.009497869018190385759 307.82115038560533549
37.009497869018190385759 4231.74216737229562568 37.009497869018190385759 306.90514278921148161
38.009497869018190385759 4237.68474796770351531 38.009497869018190385759 306.01642857307973600
39.009497869018190385759 4243.41485571923294629 39.009497869018190385759 305.14551354967994712
40.009497869018190385759 4248.94448040563020186 40.009497869018190385759 304.28608008269395668
41.009497869018190385759 4254.28466275420760212 41.009497869018190385759 303.47052815135623405
42.009497869018190385759 4259.44553750549857796 42.009497869018190385759 302.65444282980286062
43.009497869018190385759 4264.43650892029381794 43.009497869018190385759 301.87408897194512747
44.009497869018218807469 4269.26630096552253235 44.009497869018218807469 301.08810524406680997
46.009497869018190385759 4278.47405995188819361 46.009497869018190385759 299.56273092154941651
48.009497869018190385759 4287.12696913706440682 48.009497869018190385759 298.09496993576402701
50.009497869018190385759 4295.27563298059158114 50.009497869018190385759 296.64192044223545963
52.009497869018190385759 4302.96430772838175471 52.009497869018190385759 295.23002680981619505
54.009497869018190385759 4310.23205805103680177 54.009497869018190385759 293.86611534825027547
56.009497869018190385759 4317.11331828641596076 56.009497869018190385759 292.52956801783938090
58.009497869018218807469 4323.63887779980723280 58.009497869018218807469 291.15544785863420429
60.009497869018190385759 4329.83603099100582767 60.009497869018190385759 289.87083184803049107
62.009497869018190385759 4335.72944916702817864 62.009497869018190385759 288.60917856782333502
64.009497869018190385759 4341.34116814710796461 64.009497869018190385759 287.36919044811662616
66.009497869018190385759 4346.69116521337764425 66.009497869018190385759 286.12975925510477282
68.009497869018190385759 4351.79758176861287211 68.009497869018190385759 284.89923064717231682
70.009497869018190385759 4356.67667401168728247 70.009497869018190385759 283.72824901540246856
72.009497869018218807469 4361.34355638666784216 72.009497869018218807469 282.55916022346633554
74.009497869018190385759 4365.81182740555595956 74.009497869018190385759 281.42460503671100014
76.009497869018190385759 4370.09392904178548633 76.009497869018190385759 280.31374321740605637
78.009497869018190385759 4374.20145970465637220 78.009497869018190385759 279.21821658467973748
80.009497869018190385759 4378.14487800857386901 80.009497869018190385759 278.15344619205006893
82.009497869018218807469 4381.93385552349354839 82.009497869018218807469 277.11600798867402773
84.009497869018190385759 4385.57746976245653059 84.009497869018190385759 276.11388029754300533
86.009497869018190385759 4389.08392258717867662 86.009497869018190385759 275.11560739695073607
88.009497869018190385759 4392.46081422150018625 88.009497869018190385759 274.15763471759731829
91.009497869018218807469 4397.29892090424255002 91.009497869018218807469 272.75428508019228957
94.009497869018190385759 4401.88349761459448928 94.009497869018190385759 271.40627288417181262
97.009497869018190385759 4406.23424665307902615 97.009497869018190385759 270.10338665391515178
99.504748934509109403734 4409.68772449052448792 99.504748934509109403734 269.26767285780039174
nan nan nan nan

