Time Pressure difference Time.1 Pressure.1 difference.1
(hr) (psi) (hr) (psi)
0.000200000000006639311 0.69910721937272347 0.000200000000006639311 0.55730327591809226
0.000399999999999067768 1.39781849137029912 0.000399999999999067768 1.45875711553669030
0.000600000000005707079 2.09619419911313720 0.000600000000005707079 2.13430582315127948
0.000799999999998135536 2.79426326576255057 0.000799999999998135536 2.82204467335398901
0.001007140329434719206 3.51694559861046541 0.001007140329434719206 3.54400752253908502
0.001267914553963578328 4.42632202630282823 0.001267914553963578328 4.45931476795800830
0.001596209851982166583 5.57050898389769600 0.001596209851982166583 5.61039876018613803
0.002009509145210586212 7.00996344074704503 0.002009509145210586212 7.05766320313813633
0.002529822128138903281 8.82061538545921842 0.002529822128138903281 8.87680863666472497
0.003184857364445292660 11.09777782860397188 0.003184857364445292660 11.16260976042335784
0.004009497869020606231 13.96101767008387284 0.004009497869020606231 14.03357266812013115
0.005047658755842121536 17.56020864260137060 0.005047658755842121536 17.63764747015329348
0.006354625877804664924 22.08303011162398022 0.006354625877804664924 22.15918953287437887
0.008000000000009777068 27.76422134428297284 0.008000000000009777068 27.82737056950614019
0.010071403294347192059 34.89694678857937049 0.010071403294347192059 34.92622940334677395
0.012679145539692626699 43.84666797671789595 0.012679145539692626699 43.80650593118698310
0.015962098519750611558 55.06794151221075850 0.015962098519750611558 54.89929668587095080
0.020095091452091651263 69.12455310288522980 0.020095091452091651263 68.73137034420481939
0.025298221281346400247 86.71332758625457870 0.025298221281346400247 85.94163382687823116
0.031848573644282396344 108.69178273645803756 0.031848573644282396344 107.29767008411683094
0.040094978690191851456 136.10945867979458512 0.040094978690191851456 133.71037744705739669
0.050476587558421215363 170.24216707445177121 0.050476587558421215363 166.24340152921436697
0.063546258777947173257 212.62744486032337932 0.063546258777947173257 206.11211936628885155
0.079999999999998294697 265.09801184017737796 0.079999999999998294697 254.66427152997877670
0.100714032943542974863 329.80783586798594342 0.100714032943542974863 313.33085583443130417
0.126791455396897845276 409.24231257813084994 0.126791455396897845276 383.53166159641267541
0.159620985197506115583 506.19992065580242979 0.159620985197506115583 466.51523546501272222
0.200950914520774404082 623.72752273542607782 0.200950914520774404082 563.10922839568570453
0.252982212813464002465 764.98562609966597847 0.252982212813464002465 673.35654316470265712
0.318485736442795541734 933.01461624601495259 0.318485736442795541734 796.02098578908123727
0.400949786901819038576 1130.37119170136384128 0.400949786901819038576 927.97380317766521785
0.504765875584169521062 1358.61209598069103777 0.504765875584169521062 1063.53614629211710962
0.635462587779443310865 1617.63034070980597789 0.635462587779443310865 1193.96828236631927211
0.799999999999997157829 1904.91080076319076397 0.799999999999997157829 1307.45606201019450054
1.007140329435330272645 2214.87353175799580640 1.007140329435330272645 1390.07244923520738666
1.267914553968893187630 2538.59162233096049022 1.267914553968893187630 1428.11302491986475616
1.596209851975103788391 2864.23109585606835026 1.596209851975103788391 1411.71753835755680484
2.009509145207687197399 3178.44837322573403071 2.009509145207687197399 1338.79699900156651893
2.529822128134711078928 3468.62650396952494702 2.529822128134711078928 1217.45198336350608770
3.184857364427983839050 3725.34049567559895877 3.184857364427983839050 1065.11503689689038765
4.009497869018190385759 3944.12708668653613131 4.009497869018190385759 903.96379002879632480
5.009497869018190385759 4120.37129177128190349 5.009497869018190385759 758.46101069722351440
6.009497869018190385759 4241.64700212219213427 6.009497869018190385759 656.39853729086394196
7.009497869018204596614 4330.88529050523357000 7.009497869018204596614 585.39466452654824025
8.009497869018190385759 4400.10018803753882821 8.009497869018190385759 535.42115937385290181
9.009497869018204596614 4456.02709070637229161 9.009497869018204596614 500.39864585397924657
10.009497869018190385759 4502.67033691026699671 10.009497869018190385759 475.41281838832861695
11.009497869018190385759 4542.54032462158647832 11.009497869018190385759 455.14575301937139784
12.009497869018190385759 4577.28187324328064278 12.009497869018190385759 439.69216060978828864
13.009497869018190385759 4608.01913885777139512 13.009497869018190385759 427.65851645087201405
14.009497869018204596614 4635.54762193657097669 14.009497869018204596614 418.10106873412883033
15.009497869018190385759 4660.44811588565153215 15.009497869018190385759 410.36647237202612359
16.009497869018190385759 4683.15645471126845223 16.009497869018190385759 403.99733066819436544
17.009497869018190385759 4704.00778027500473399 17.009497869018190385759 398.78889103102068248
18.009497869018190385759 4723.26526868919336266 18.009497869018190385759 394.22877425807411100
19.009497869018204596614 4741.13869721117407607 19.009497869018204596614 390.45711313758539518
20.009497869018190385759 4757.79885099958482897 20.009497869018190385759 386.99772601356698942
21.009497869018204596614 4773.38682778814290941 21.009497869018204596614 383.95031820747789197
22.009497869018190385759 4788.01964102344663843 22.009497869018190385759 381.23717148526844767
23.009497869018190385759 4801.79633395440578170 23.009497869018190385759 378.84057057667854451
24.009497869018190385759 4814.80138876022465411 24.009497869018190385759 376.61999911090401838
25.009497869018190385759 4827.10691836280238931 25.009497869018190385759 374.59043348980605970
26.009497869018204596614 4838.77598241638952459 26.009497869018204596614 372.76324947780966568
27.009497869018190385759 4849.86287470101160579 27.009497869018190385759 371.02248687134306238
28.009497869018190385759 4860.41583824934059521 28.009497869018190385759 369.39912126362668232
29.009497869018190385759 4870.47689595762039971 29.009497869018190385759 367.88859868821185728
30.009497869018190385759 4880.08376999766733206 30.009497869018190385759 366.45067580131046725
31.009497869018190385759 4889.26975820070128975 31.009497869018190385759 365.08961363759510732
32.009497869018190385759 4898.06484112603538961 32.009497869018190385759 363.79426411183294476
33.009497869018190385759 4906.49593566150724655 33.009497869018190385759 362.56448716140778288
34.009497869018190385759 4914.58721748374136951 34.009497869018190385759 361.37594703126279683
35.009497869018190385759 4922.36078714277664403 35.009497869018190385759 360.22916635981596301
36.009497869018190385759 4929.83649148553740815 36.009497869018190385759 359.12467544987288193
37.009497869018190385759 4937.03252860101110855 37.009497869018190385759 358.05599992074672855
38.009497869018190385759 4943.96553929565379804 38.009497869018190385759 357.01916666859301586
39.009497869018190385759 4950.65066500577177067 39.009497869018190385759 356.00309914129331901
40.009497869018190385759 4957.10189380656902358 40.009497869018190385759 355.00042676314296841
41.009497869018190385759 4963.33210654657523264 41.009497869018190385759 354.04894950991570113
42.009497869018190385759 4969.35312708974834095 42.009497869018190385759 353.09684996810335633
43.009497869018190385759 4975.17592707367566618 43.009497869018190385759 352.18643713393601047
44.009497869018218807469 4980.81068445977507508 44.009497869018218807469 351.26945611807798286
46.009497869018190385759 4991.55306994386955921 46.009497869018190385759 349.48985274180768101
48.009497869018190385759 5001.64813065990892937 48.009497869018190385759 347.77746492505804099
50.009497869018190385759 5011.15490514402335975 50.009497869018190385759 346.08224051594135062
52.009497869018190385759 5020.12502568311083451 52.009497869018190385759 344.43503127811891318
54.009497869018190385759 5028.60406772620990523 54.009497869018190385759 342.84380123962534981
56.009497869018190385759 5036.63220466748589388 56.009497869018190385759 341.28449602081263947
58.009497869018218807469 5044.24535743310843827 58.009497869018218807469 339.68135583507324782
60.009497869018190385759 5051.47536948950619262 60.009497869018190385759 338.18263715603563924
62.009497869018190385759 5058.35102402820029965 62.009497869018190385759 336.71070832912715787
64.009497869018190385759 5064.89802950495959522 64.009497869018190385759 335.26405552280272104
66.009497869018190385759 5071.13969274893952388 66.009497869018190385759 333.81805246428888267
68.009497869018190385759 5077.09717873004865396 68.009497869018190385759 332.38243575503440752
70.009497869018190385759 5082.78945301363546605 70.009497869018190385759 331.01629051796953718
72.009497869018218807469 5088.23414911777945235 72.009497869018218807469 329.65235359404408655
74.009497869018190385759 5093.44713197314922581 74.009497869018190385759 328.32870587616292823
76.009497869018190385759 5098.44291721541685547 76.009497869018190385759 327.03270042030709419
78.009497869018190385759 5103.23503632209940406 78.009497869018190385759 325.75458601545966530
80.009497869018190385759 5107.83569101000284718 80.009497869018190385759 324.51235389072508042
82.009497869018218807469 5112.25616477740823029 82.009497869018218807469 323.30200932011973691
84.009497869018190385759 5116.50704805619989202 84.009497869018190385759 322.13286034713354411
86.009497869018190385759 5120.59790968504239572 86.009497869018190385759 320.96820862977585875
88.009497869018190385759 5124.53761659174961096 88.009497869018190385759 319.85057383719691870
91.009497869018218807469 5130.18207438828176237 91.009497869018218807469 318.21333259355765222
94.009497869018190385759 5135.53074721702705574 94.009497869018190385759 316.64065169820042911
97.009497869018190385759 5140.60662109525856067 97.009497869018190385759 315.12061776290096304
99.504748934509109403734 5144.63567857227735658 99.504748934509109403734 314.14561833410044756
nan nan nan nan

