Time Pressure difference Time.1 Pressure.1 difference.1
(hr) (psi) (hr) (psi)
0.000200000000006639311 0.75736615432045040 0.000200000000006639311 0.60374521557793326
0.000399999999999067768 1.51430336565115731 0.000399999999999067768 1.58032020849808119
0.000600000000005707079 2.27087704903923182 0.000600000000005707079 2.31216464174721903
0.000799999999998135536 3.02711853790943008 0.000799999999998135536 3.05721506280015509
0.001007140329434719206 3.81002439849467089 0.001007140329434719206 3.83934148275067555
0.001267914553963578328 4.79518219516139776 0.001267914553963578328 4.83092433195450877
0.001596209851982166583 6.03471806588917126 0.001596209851982166583 6.07793199020164909
0.002009509145210586212 7.59412706080930011 0.002009509145210586212 7.64580180339964688
0.002529822128138903281 9.55566666758081951 0.002529822128138903281 9.61654268972011650
0.003184857364445292660 12.02259264765430302 0.003184857364445292660 12.09282724045863766
0.004009497869020606231 15.12443580925753039 0.004009497869020606231 15.20303705713014253
0.005047658755842121536 19.02355936281814763 0.005047658755842121536 19.10745142599940039
0.006354625877804664924 23.92328262092597413 0.006354625877804664924 24.00578866061391281
0.008000000000009777068 30.07790645630655391 0.008000000000009777068 30.14631811696498431
0.010071403294347192059 37.80502568762765492 0.010071403294347192059 37.83674852029233904
0.012679145539692626699 47.50055697477772298 0.012679145539692626699 47.45704809211922992
0.015962098519750611558 59.65693663822832349 0.015962098519750611558 59.47423807636019433
0.020095091452091651263 74.88493252812565970 0.020095091452091651263 74.45898453955523166
0.025298221281346400247 93.93943821844246145 0.025298221281346400247 93.10343664578473977
0.031848573644282396344 117.74943129782954543 0.031848573644282396344 116.23914259112656566
0.040094978690191851456 147.45191356977747432 0.040094978690191851456 144.85290890097883221
0.050476587558421215363 184.42901433065608785 0.050476587558421215363 180.09701832331558080
0.063546258777947173257 230.34639859868366329 0.063546258777947173257 223.28812931347962945
0.079999999999998294697 287.18951282685878823 0.079999999999998294697 275.88629415747698204
0.100714032943542974863 357.29182219031810064 0.100714032943542974863 339.44176048730054163
0.126791455396897845276 443.34583862630842077 0.126791455396897845276 415.49263339611371748
0.159620985197506115583 548.38324737711923262 0.159620985197506115583 505.39150508709718679
0.200950914520774404082 675.70481629671155588 0.200950914520774404082 610.03499742865949429
0.252982212813464002465 828.73442827463816229 0.252982212813464002465 729.46958842842786908
0.318485736442795541734 1010.76583426651632180 0.318485736442795541734 862.35606793817146354
0.400949786901819038576 1224.56879100981109332 0.400949786901819038576 1005.30495344247060530
0.504765875584169521062 1471.82977064574856740 0.504765875584169521062 1152.16415848312681192
0.635462587779443310865 1752.43286910228948727 0.635462587779443310865 1293.46563923017947673
0.799999999999997157829 2063.65336749345624412 0.799999999999997157829 1416.41073384437731875
1.007140329435330272645 2399.44632607116182044 1.007140329435330272645 1505.91182000480830538
1.267914553968893187630 2750.14092419187409178 1.267914553968893187630 1547.12244366318668654
1.596209851975103788391 3102.91702051074071278 1.596209851975103788391 1529.36066655401987191
2.009509145207687197399 3443.31907099454519994 2.009509145207687197399 1450.36341558503045235
2.529822128134711078928 3757.67871263365168488 2.529822128134711078928 1318.90631531046483360
3.184857364427983839050 4035.78553698189898569 3.184857364427983839050 1153.87462330496464347
4.009497869018190385759 4272.80434391041399067 4.009497869018190385759 979.29410586452945608
5.009497869018190385759 4463.73556608555554703 5.009497869018190385759 821.66609492199199849
6.009497869018190385759 4595.11758563237526687 6.009497869018190385759 711.09841539843603186
7.009497869018204596614 4691.79239804733606434 7.009497869018204596614 634.17755323709400272
8.009497869018190385759 4766.77520370733418531 8.009497869018190385759 580.03958932167392959
9.009497869018204596614 4827.36268159856990678 9.009497869018204596614 542.09853300847748869
10.009497869018190385759 4877.89286498612273135 10.009497869018190385759 515.03055325402272047
11.009497869018190385759 4921.08535167338504834 11.009497869018190385759 493.07456577098571415
12.009497869018190385759 4958.72202934688721143 12.009497869018190385759 476.33317399393729374
13.009497869018190385759 4992.02073376258613280 13.009497869018190385759 463.29672615511134381
14.009497869018204596614 5021.84325709795211878 14.009497869018204596614 452.94282446197291847
15.009497869018190385759 5048.81879220945575071 15.009497869018190385759 444.56367840302834793
16.009497869018190385759 5073.41949260387445975 16.009497869018190385759 437.66377489054394800
17.009497869018190385759 5096.00842863125581061 17.009497869018190385759 432.02129861693907742
18.009497869018190385759 5116.87070774662515760 18.009497869018190385759 427.08117211291357762
19.009497869018204596614 5136.23358864543843083 19.009497869018204596614 422.99520589905080215
20.009497869018190385759 5154.28208858288326155 20.009497869018190385759 419.24753651469757187
21.009497869018204596614 5171.16906343715527328 21.009497869018204596614 415.94617805810105438
22.009497869018190385759 5187.02127777540044917 22.009497869018190385759 413.00693577570751813
23.009497869018190385759 5201.94602845060580876 23.009497869018190385759 410.41061812473503778
24.009497869018190385759 5216.03483782357670862 24.009497869018190385759 408.00499903681270553
25.009497869018190385759 5229.36582822636864876 25.009497869018190385759 405.80630294728985064
26.009497869018204596614 5242.00731428442213655 26.009497869018204596614 403.82685360096041904
27.009497869018190385759 5254.01811425942833012 27.009497869018190385759 401.94102744395502214
28.009497869018190385759 5265.45049143678534165 28.009497869018190385759 400.18238136892887269
29.009497869018190385759 5276.34997062075581198 29.009497869018190385759 398.54598191222947889
30.009497869018190385759 5286.75741749747248832 30.009497869018190385759 396.98823211808638689
31.009497869018190385759 5296.70890471742677619 31.009497869018190385759 395.51374810739463328
32.009497869018190385759 5306.23691121987212682 32.009497869018190385759 394.11045278781904244
33.009497869018190385759 5315.37059696663163777 33.009497869018190385759 392.77819442485838408
34.009497869018190385759 5324.13615227405261976 34.009497869018190385759 391.49060928386808200
35.009497869018190385759 5332.55751940467507666 35.009497869018190385759 390.24826355646729326
36.009497869018190385759 5340.65619910933310166 36.009497869018190385759 389.05173173736227454
37.009497869018190385759 5348.45190598442877672 37.009497869018190385759 387.89399991414234137
38.009497869018190385759 5355.96266757029115979 38.009497869018190385759 386.77076389097578613
39.009497869018190385759 5363.20488708958600910 39.009497869018190385759 385.67002406973443840
40.009497869018190385759 5370.19371829044939659 40.009497869018190385759 384.58379566007153016
41.009497869018190385759 5376.94311542545619886 41.009497869018190385759 383.55302863574195271
42.009497869018190385759 5383.46588768056062690 42.009497869018190385759 382.52158746544529322
43.009497869018190385759 5389.77392099648204749 43.009497869018190385759 381.53530689509733520
44.009497869018218807469 5395.87824149809057417 44.009497869018218807469 380.54191079458450986
46.009497869018190385759 5407.51582577252520423 46.009497869018190385759 378.61400713695832110
48.009497869018190385759 5418.45214154823406716 48.009497869018190385759 376.75892033547955862
50.009497869018190385759 5428.75114723935985239 50.009497869018190385759 374.92242722560314405
52.009497869018190385759 5438.46877782337014651 52.009497869018190385759 373.13795055129548928
54.009497869018190385759 5447.65440670339467033 54.009497869018190385759 371.41411800959411948
56.009497869018190385759 5456.35155505644343066 56.009497869018190385759 369.72487068921373066
58.009497869018218807469 5464.59913721920111129 58.009497869018218807469 367.98813548799603268
60.009497869018190385759 5472.43165028029761743 60.009497869018190385759 366.36452358570522847
62.009497869018190385759 5479.88027603054979409 62.009497869018190385759 364.76993402322113980
64.009497869018190385759 5486.97286529703887936 64.009497869018190385759 363.20272681636964762
66.009497869018190385759 5493.73466714468577266 66.009497869018190385759 361.63622350297958974
68.009497869018190385759 5500.18861029088566283 68.009497869018190385759 360.08097206795389411
70.009497869018190385759 5506.35524076477122435 70.009497869018190385759 358.60098139446699861
72.009497869018218807469 5512.25366154426046705 72.009497869018218807469 357.12338306021445078
74.009497869018190385759 5517.90105963757741847 74.009497869018190385759 355.68943136584312015
76.009497869018190385759 5523.31316031670121447 76.009497869018190385759 354.28542545533269958
78.009497869018190385759 5528.50462268227329332 78.009497869018190385759 352.90080151674794706
80.009497869018190385759 5533.48866526083656936 80.009497869018190385759 351.55505004828546589
82.009497869018218807469 5538.27751184219232528 82.009497869018218807469 350.24384343012968657
84.009497869018190385759 5542.88263539421677706 84.009497869018190385759 348.97726537606132524
86.009497869018190385759 5547.31440215879592870 86.009497869018190385759 347.71555934892393225
88.009497869018190385759 5551.58241797439495713 88.009497869018190385759 346.50478832362995263
91.009497869018218807469 5557.69724725397190923 91.009497869018218807469 344.73111030968743762
94.009497869018190385759 5563.49164281844605284 94.009497869018190385759 343.02737267305047908
97.009497869018190385759 5568.99050618653018319 97.009497869018190385759 341.38066924314273365
99.504748934509109403734 5573.35531845330115175 99.504748934509109403734 340.32441986194220362
nan nan nan nan

