Time Pressure difference Time.1 Pressure.1 difference.1
(hr) (psi) (hr) (psi)
0.000200000000006639311 0.58591843147428246 0.000200000000006639311 0.46707322172182963
0.000399999999999067768 1.17150502133891732 0.000399999999999067768 1.22257739206884497
0.000600000000005707079 1.75681037639958149 0.000600000000005707079 1.78875154702202455
0.000799999999998135536 2.34185873702004255 0.000799999999998135536 2.36514220243000972
0.001007140329434719206 2.94753535883543760 0.001007140329434719206 2.97021582841370924
0.001267914553963578328 3.70967941252046529 0.001267914553963578328 3.73733047219337822
0.001596209851982166583 4.66861705317140263 0.001596209851982166583 4.70204848472743020
0.002009509145210586212 5.87501697891180896 0.002009509145210586212 5.91499392263005674
0.002529822128138903281 7.39251575162296426 0.002529822128138903281 7.43961104787138794
0.003184857364445292660 9.30099475159189915 0.003184857364445292660 9.35533008492624241
0.004009497869020606231 11.70066242826077030 0.004009497869020606231 11.76147042661496656
0.005047658755842121536 14.71712724332305200 0.005047658755842121536 14.78202835593799769
0.006354625877804664924 18.50768237926581250 0.006354625877804664924 18.57151122755186279
0.008000000000009777068 23.26906169806573033 0.008000000000009777068 23.32198676301467088
0.010071403294347192059 29.24696492757128752 0.010071403294347192059 29.27150654756681902
0.012679145539692626699 36.74768363763023871 0.012679145539692626699 36.71402401851861441
0.015962098519750611558 46.15217955309092446 0.015962098519750611558 46.01083912720612545
0.020095091452091651263 57.93295879098952383 0.020095091452091651263 57.60343419323832848
0.025298221281346400247 72.67402692943241505 0.025298221281346400247 72.02727406443128189
0.031848573644282396344 91.09406553150768104 0.031848573644282396344 89.92566635621220428
0.040094978690191851456 114.07268917925641460 0.040094978690191851456 112.06203062229570833
0.050476587558421215363 142.67914954811195116 0.050476587558421215363 139.32780318638918970
0.063546258777947173257 178.20204902579482109 0.063546258777947173257 172.74158575460401721
0.079999999999998294697 222.17738135176767855 0.079999999999998294697 213.43291328226791848
0.100714032943542974863 276.41037672745488862 0.100714032943542974863 262.60109822314240091
0.126791455396897845276 342.98403339881440388 0.126791455396897845276 321.43605924270781315
0.159620985197506115583 424.24374302581537677 0.159620985197506115583 390.98419734210591514
0.200950914520774404082 522.74306667349992495 0.200950914520774404082 471.93916284590801524
0.252982212813464002465 641.13081044543434928 0.252982212813464002465 564.33691236660797586
0.318485736442795541734 781.95510694904112370 0.318485736442795541734 667.14139761370620363
0.400949786901819038576 947.35871304495265122 0.400949786901819038576 777.73042552032904950
0.504765875584169521062 1138.64632806000781784 0.504765875584169521062 891.34457974958377235
0.635462587779443310865 1355.72828554726584116 0.635462587779443310865 1000.65913188796298527
0.799999999999997157829 1596.49667111581698009 0.799999999999997157829 1095.77269958949636930
1.007140329435330272645 1856.27495994955825154 1.007140329435330272645 1165.01310031141201762
1.267914553968893187630 2127.58155014404337635 1.267914553968893187630 1196.89472564712468738
1.596209851975103788391 2400.49844224127673442 1.596209851975103788391 1183.15374643300015123
2.009509145207687197399 2663.84244613204373309 2.009509145207687197399 1122.03938963940822759
2.529822128134711078928 2907.03935570779185582 2.529822128134711078928 1020.34070986655729030
3.184857364427983839050 3122.19012970907351701 3.184857364427983839050 892.66784044691769395
4.009497869018190385759 3305.55412979443008226 4.009497869018190385759 757.60774783365786789
5.009497869018190385759 3453.26355881783638324 5.009497869018190385759 635.66256134624438801
6.009497869018190385759 3554.90415415955158096 6.009497869018190385759 550.12448839615274210
7.009497869018204596614 3629.69433870914781437 7.009497869018204596614 490.61648074605955117
8.009497869018190385759 3687.70301473622293997 8.009497869018190385759 448.73392404665764843
9.009497869018204596614 3734.57508554438800275 9.009497869018204596614 419.38172223952545892
10.009497869018190385759 3773.66656807717617994 10.009497869018190385759 398.44121922069444963
11.009497869018190385759 3807.08141492094819114 11.009497869018190385759 381.45548824480653138
12.009497869018190385759 3836.19814138484480281 12.009497869018190385759 368.50390603487022645
13.009497869018190385759 3861.95889732841806108 13.009497869018190385759 358.41856616834985516
14.009497869018204596614 3885.03038790874552433 14.009497869018204596614 350.40851474860323833
15.009497869018190385759 3905.89937331368901141 15.009497869018190385759 343.92618636893621442
16.009497869018190385759 3924.93112394849231350 16.009497869018190385759 338.58823903620100282
17.009497869018190385759 3942.40652061143327956 17.009497869018190385759 334.22307057837923594
18.009497869018190385759 3958.54612994903754952 18.009497869018190385759 330.40125842581448978
19.009497869018204596614 3973.52576528174586201 19.009497869018204596614 327.24024720102391939
20.009497869018190385759 3987.48856083774717263 20.009497869018190385759 324.34095132565613540
21.009497869018204596614 4000.55276995577696653 21.009497869018204596614 321.78693335483859528
22.009497869018190385759 4012.81646104822175403 22.009497869018190385759 319.51305800670121471
23.009497869018190385759 4024.36264179035924826 23.009497869018190385759 317.50447819759727963
24.009497869018190385759 4035.26211629428371452 24.009497869018190385759 315.64342782628148143
25.009497869018190385759 4045.57532205644338319 25.009497869018190385759 313.94245854383746064
26.009497869018204596614 4055.35510907278376180 26.009497869018204596614 312.41110432425949739
27.009497869018190385759 4064.64698070180020295 27.009497869018190385759 310.95217947312562501
28.009497869018190385759 4073.49136919944749025 28.009497869018190385759 309.59164448761094945
29.009497869018190385759 4081.92349375495859931 29.009497869018190385759 308.32568271012041805
30.009497869018190385759 4089.97496914090243081 30.009497869018190385759 307.12056638586022927
31.009497869018190385759 4097.67370211106390343 31.009497869018190385759 305.97986666769872954
32.009497869018190385759 4105.04481922943978134 32.009497869018190385759 304.89424039848853454
33.009497869018190385759 4112.11087941154801229 33.009497869018190385759 303.86357019241791022
34.009497869018190385759 4118.89214417684979708 34.009497869018190385759 302.86746036905833535
35.009497869018190385759 4125.40713589108872839 35.009497869018190385759 301.90634894917911879
36.009497869018190385759 4131.67248810216551647 36.009497869018190385759 300.98068037703632172
37.009497869018190385759 4137.70345254180028860 37.009497869018190385759 300.08502850500678960
38.009497869018190385759 4143.51397579064359888 38.009497869018190385759 299.21606349367800703
39.009497869018190385759 4149.11674781436067860 39.009497869018190385759 298.36450213746485360
40.009497869018190385759 4154.52349195217175293 40.009497869018190385759 297.52416719196742179
41.009497869018190385759 4159.74500358189197868 41.009497869018190385759 296.72673863688169149
42.009497869018190385759 4164.79119222759891272 42.009497869018190385759 295.92878854469608996
43.009497869018190385759 4169.67125316650890454 43.009497869018190385759 295.16577588367971430
44.009497869018218807469 4174.39371649962140509 44.009497869018218807469 294.39725846086531647
46.009497869018190385759 4183.39685861962425406 46.009497869018190385759 292.90578134551503808
48.009497869018190385759 4191.85748093401889491 48.009497869018190385759 291.47063727052483273
50.009497869018190385759 4199.82506335880134429 50.009497869018190385759 290.04987776574131431
52.009497869018190385759 4207.34287866775048315 52.009497869018190385759 288.66935954737584780
54.009497869018190385759 4214.44912342768020608 54.009497869018190385759 287.33575722940031483
56.009497869018190385759 4221.17746676894057600 56.009497869018190385759 286.02891095077632144
58.009497869018218807469 4227.55801384870028414 58.009497869018218807469 284.68532679510900607
60.009497869018190385759 4233.61745252453874855 60.009497869018190385759 283.42925780696316451
62.009497869018190385759 4239.37990585220541107 62.009497869018190385759 282.19564126631615864
64.009497869018190385759 4244.86691996606077737 64.009497869018190385759 280.98320843815849912
66.009497869018190385759 4250.09802820863569650 66.009497869018190385759 279.77132016054684982
68.009497869018190385759 4255.09096884042173770 68.009497869018190385759 278.56813663279069715
70.009497869018190385759 4259.86163681142716086 70.009497869018190385759 277.42317681506017379
72.009497869018218807469 4264.42481068918641540 72.009497869018218807469 276.28006777405602179
74.009497869018190385759 4268.79378679654382722 74.009497869018190385759 275.17072492478416734
76.009497869018190385759 4272.98073061863487965 76.009497869018190385759 274.08454892368592937
78.009497869018190385759 4276.99698282233111968 78.009497869018190385759 273.01336732724240619
80.009497869018190385759 4280.85276960838382365 80.009497869018190385759 271.97225849889338178
82.009497869018218807469 4284.55754762297056004 82.009497869018218807469 270.95787447781458468
84.009497869018190385759 4288.12019265662456746 84.009497869018190385759 269.97801629093095244
86.009497869018190385759 4291.54872430746399914 86.009497869018190385759 269.00192723257407579
88.009497869018190385759 4294.85057390546626266 88.009497869018190385759 268.06524283498407613
91.009497869018218807469 4299.58116710637023061 91.009497869018218807469 266.69307874507688894
94.009497869018190385759 4304.06386433427087468 94.009497869018190385759 265.37502237563461449
97.009497869018190385759 4308.31793006078805774 97.009497869018190385759 264.10108917271702467
99.504748934509109403734 4311.69466394629034767 99.504748934509109403734 263.28394679429374037
nan nan nan nan

