Time Pressure difference Time.1 Pressure.1 difference.1
(hr) (psi) (hr) (psi)
0.000200000000006639311 0.07407207443353857 0.000200000000006639311 0.05904760899608359
0.000399999999999067768 0.14810219729994836 0.000399999999999067768 0.15455878962233979
0.000600000000005707079 0.22209676633460618 0.000600000000005707079 0.22613478364340936
0.000799999999998135536 0.29605884601531784 0.000799999999998135536 0.29900235229583932
0.001007140329434719206 0.37262875985277549 0.001007140329434719206 0.37549603512616497
0.001267914553963578328 0.46897935754875203 0.001267914553963578328 0.47247501708126516
0.001596209851982166583 0.59020868996058928 0.001596209851982166583 0.59443510673400757
0.002009509145210586212 0.74272231693629409 0.002009509145210586212 0.74777622033249302
0.002529822128138903281 0.93456520155460765 0.002529822128138903281 0.94051901031328622
0.003184857364445292660 1.17583598422113500 0.003184857364445292660 1.18270508175914135
0.004009497869020606231 1.47920306266364854 0.004009497869020606231 1.48689043745558536
0.005047658755842121536 1.86054591570419259 0.005047658755842121536 1.86875074386147988
0.006354625877804664924 2.33974961896968336 0.006354625877804664924 2.34781889098311902
0.008000000000009777068 2.94168535671569620 0.008000000000009777068 2.94837616748338860
0.010071403294347192059 3.69741460021852886 0.010071403294347192059 3.70051716297364663
0.012679145539692626699 4.64565886896177638 0.012679145539692626699 4.64140360461385892
0.015962098519750611558 5.83457951736518776 0.015962098519750611558 5.81671119647918378
0.020095091452091651263 7.32391098351998249 0.020095091452091651263 7.28225233408836825
0.025298221281346400247 9.18748351806745056 0.025298221281346400247 9.10572072689543077
0.031848573644282396344 11.51615317088662671 0.031848573644282396344 11.36844361605523623
0.040094978690191851456 14.42112121726395024 0.040094978690191851456 14.16693284855726986
0.050476587558421215363 18.03756294003119720 0.050476587558421215363 17.61388420964295065
0.063546258777947173257 22.52838403877235862 0.063546258777947173257 21.83806978999965409
0.079999999999998294697 28.08776554020926852 0.079999999999998294697 26.98228591210489213
0.100714032943542974863 34.94392546696517599 0.100714032943542974863 33.19815020150521434
0.126791455396897845276 43.36019740411148149 0.126791455396897845276 40.63609271676277501
0.159620985197506115583 53.63308683138858868 0.159620985197506115583 49.42839994807873438
0.200950914520774404082 66.08541609934870564 0.200950914520774404082 59.66276348478098868
0.252982212813464002465 81.05204847960746406 0.252982212813464002465 71.34372897816491843
0.318485736442795541734 98.85512005463729679 0.318485736442795541734 84.34031873241457333
0.400949786901819038576 119.76551912073975359 0.400949786901819038576 98.32103390810976862
0.504765875584169521062 143.94818635985893707 0.504765875584169521062 112.68418692856954522
0.635462587779443310865 171.39178609901514960 0.635462587779443310865 126.50378229833621901
0.799999999999997157829 201.82983484276664399 0.799999999999997157829 138.52808276060395087
1.007140329435330272645 234.67112419816859870 1.007140329435330272645 147.28148569277794877
1.267914553968893187630 268.96982665173271698 1.267914553968893187630 151.31197525936661918
1.596209851975103788391 303.47210420379769857 1.596209851975103788391 149.57483442121736061
2.009509145207687197399 336.76417287748847684 2.009509145207687197399 141.84872965611836548
2.529822128134711078928 367.50923673010441917 2.529822128134711078928 128.99193633256194857
3.184857364427983839050 394.70869537515278580 3.184857364427983839050 112.85147414740862359
4.009497869018190385759 417.88965561321629139 4.009497869018190385759 95.77711584828914226
5.009497869018190385759 436.56314877100487593 5.009497869018190385759 80.36074994292009421
6.009497869018190385759 449.41259903437509138 6.009497869018190385759 69.54698787962726669
7.009497869018204596614 458.86760816067356927 7.009497869018204596614 62.02395850340810313
8.009497869018190385759 466.20109135159634661 8.009497869018190385759 56.72914664794393502
9.009497869018204596614 472.12667984865134940 9.009497869018204596614 53.01842795357637783
10.009497869018190385759 477.06864283930212878 10.009497869018190385759 50.37112004352529482
11.009497869018190385759 481.29296296585852133 11.009497869018190385759 48.22377621276673665
12.009497869018190385759 484.97391276029992468 12.009497869018190385759 46.58643130270375821
13.009497869018190385759 488.23059923612112243 13.009497869018190385759 45.31143805253286416
14.009497869018204596614 491.14730756232717113 14.009497869018204596614 44.29880371111602955
15.009497869018190385759 493.78557418312260552 15.009497869018190385759 43.47930481084562615
16.009497869018190385759 496.19157674917011036 16.009497869018190385759 42.80447908270154755
17.009497869018190385759 498.40082433866132305 17.009497869018190385759 42.25263250209624033
18.009497869018190385759 500.44120108730726315 18.009497869018190385759 41.76947727258166054
19.009497869018204596614 502.33493339499347030 19.009497869018204596614 41.36986079672035288
20.009497869018190385759 504.10011635590842616 20.009497869018190385759 41.00333049429460175
21.009497869018204596614 505.75169961088664650 21.009497869018204596614 40.68045038150658144
22.009497869018190385759 507.30208101319851721 22.009497869018190385759 40.39298602641535041
23.009497869018190385759 508.76175443088339989 23.009497869018190385759 40.13906045395761168
24.009497869018190385759 510.13967095197619983 24.009497869018190385759 39.90378562008388030
25.009497869018190385759 511.44347111224931268 25.009497869018190385759 39.68874831022944960
26.009497869018204596614 512.67983623221266498 26.009497869018204596614 39.49515381372030731
27.009497869018190385759 513.85451886713087788 27.009497869018190385759 39.31071587089230235
28.009497869018190385759 514.97263048118020379 28.009497869018190385759 39.13871641959854486
29.009497869018190385759 516.03862350027168304 29.009497869018190385759 38.97867295625101747
30.009497869018190385759 517.05649467832427035 30.009497869018190385759 38.82632160275789346
31.009497869018190385759 518.02977199983627088 31.009497869018190385759 38.68211382588805236
32.009497869018190385759 518.96163197644909815 32.009497869018190385759 38.54486845946801310
33.009497869018190385759 519.85492651651679807 33.009497869018190385759 38.41457066353010674
34.009497869018190385759 520.71221709053918403 34.009497869018190385759 38.28864200688380492
35.009497869018190385759 521.53584530441321476 35.009497869018190385759 38.16713786431383681
36.009497869018190385759 522.32791397882488127 36.009497869018190385759 38.05011442266510358
37.009497869018190385759 523.09035124463093780 37.009497869018190385759 37.93688570588864195
38.009497869018190385759 523.82492023489669464 38.009497869018190385759 37.82703075417235539
39.009497869018190385759 524.53322522084954471 39.009497869018190385759 37.71937598044655005
40.009497869018190385759 525.21674827236267902 40.009497869018190385759 37.61314045466633615
41.009497869018190385759 525.87685414600628064 41.009497869018190385759 37.51232917426487035
42.009497869018190385759 526.51479560831853632 42.009497869018190385759 37.41145196090618441
43.009497869018190385759 527.13173513042511331 43.009497869018190385759 37.31499155347655261
44.009497869018218807469 527.72875109157143925 44.009497869018218807469 37.21783523155826146
46.009497869018190385759 528.86693241071952798 46.009497869018190385759 37.02928201669153196
48.009497869018190385759 529.93652812944276320 48.009497869018190385759 36.84785045039305373
50.009497869018190385759 530.94379352121200100 50.009497869018190385759 36.66823738799855192
52.009497869018190385759 531.89419914975826487 52.009497869018190385759 36.49371164732450978
54.009497869018190385759 532.79257384241986983 54.009497869018190385759 36.32511703610316545
56.009497869018190385759 533.64317406595989723 56.009497869018190385759 36.15990493553848495
58.009497869018218807469 534.44980572803171981 58.009497869018218807469 35.99004841585895065
60.009497869018190385759 535.21584271972142233 60.009497869018190385759 35.83125560343710703
62.009497869018190385759 535.94433468870215620 62.009497869018190385759 35.67530123963371125
64.009497869018190385759 536.63800550707310322 64.009497869018190385759 35.52202493039219888
66.009497869018190385759 537.29932458887583380 66.009497869018190385759 35.36881746347822286
68.009497869018190385759 537.93053441306460627 68.009497869018190385759 35.21671045499768837
70.009497869018190385759 538.53364442644465271 70.009497869018190385759 35.07196411440391159
72.009497869018218807469 539.11052294224089110 72.009497869018218807469 34.92745174984514023
74.009497869018190385759 539.66285088763117983 74.009497869018190385759 34.78720812259344797
76.009497869018190385759 540.19216622877627287 76.009497869018190385759 34.64989325881825266
78.009497869018190385759 540.69990265793671824 78.009497869018190385759 34.51447399449513398
80.009497869018190385759 541.18735297605985579 80.009497869018190385759 34.38285654318396922
82.009497869018218807469 541.65571269665394993 82.009497869018218807469 34.25461765415554538
84.009497869018190385759 542.10610390119268232 84.009497869018190385759 34.13074353677962591
86.009497869018190385759 542.53954043091516724 86.009497869018190385759 34.00734591434530785
88.009497869018190385759 542.95696175793534621 88.009497869018190385759 33.88892984703633715
91.009497869018218807469 543.55500550066324195 91.009497869018218807469 33.71546023907932010
94.009497869018190385759 544.12171012180408525 94.009497869018190385759 33.54883095373789814
97.009497869018190385759 544.65951104461669274 97.009497869018190385759 33.38777973916451458
99.504748934509109403734 545.08639927730087038 99.504748934509109403734 33.28447622825589036
nan nan nan nan

