Time Pressure difference Time.1 Pressure.1 difference.1
(hr) (psi) (hr) (psi)
0.000200000000006639311 0.83310276975249542 0.000200000000006639311 0.66411973713572658
0.000399999999999067768 1.66573370221627326 0.000399999999999067768 1.73835222934788924
0.000600000000005707079 2.49796475394315465 0.000600000000005707079 2.54338110592194111
0.000799999999998135536 3.32983039170037287 0.000799999999998135536 3.36293656908017047
0.001007140329434719206 4.19102683834413803 0.001007140329434719206 4.22327563102574288
0.001267914553963578328 5.27470041467753692 0.001267914553963578328 5.31401676514995991
0.001596209851982166583 6.63818987247808856 0.001596209851982166583 6.68572518922181480
0.002009509145210586212 8.35353976689022915 0.002009509145210586212 8.41038198373961166
0.002529822128138903281 10.51123333433890039 0.002529822128138903281 10.57819695869213028
0.003184857364445292660 13.22485191241973190 0.003184857364445292660 13.30210996450450267
0.004009497869020606231 16.63687939018328166 0.004009497869020606231 16.72334076284315429
0.005047658755842121536 20.92591529909996595 0.005047658755842121536 21.01819656859934327
0.006354625877804664924 26.31561088301857509 0.006354625877804664924 26.40636752667530374
0.008000000000009777068 33.08569710193720681 0.008000000000009777068 33.16094992866148772
0.010071403294347192059 41.58552825639042538 0.010071403294347192059 41.62042337232157507
0.012679145539692626699 52.25061267225549244 0.012679145539692626699 52.20275290133115931
0.015962098519750611558 65.62263030205116365 0.015962098519750611558 65.42166188399622229
0.020095091452091651263 82.37342578093823420 0.020095091452091651263 81.90488299351075341
0.025298221281346400247 103.33338204028670759 0.025298221281346400247 102.41378031036320806
0.031848573644282396344 129.52437442761248576 0.031848573644282396344 127.86305685023921797
0.040094978690191851456 162.19710492675520186 0.040094978690191851456 159.33819979107673248
0.050476587558421215363 202.87191576372168811 0.050476587558421215363 198.10672015564713888
0.063546258777947173257 253.38103845855198415 0.063546258777947173257 245.61694224482758386
0.079999999999998294697 315.90846410954469548 0.079999999999998294697 303.47492357322471435
0.100714032943542974863 393.02100440934992776 0.100714032943542974863 373.38593653603055600
0.126791455396897845276 487.68042248893925716 0.126791455396897845276 457.04189673572511765
0.159620985197506115583 603.22157211483124684 0.159620985197506115583 555.93065559580679746
0.200950914520774404082 743.27529792638267736 0.200950914520774404082 671.03849717152547782
0.252982212813464002465 911.60787110210185347 0.252982212813464002465 802.41654727127070146
0.318485736442795541734 1111.84241769316781756 0.318485736442795541734 948.59167473198851894
0.400949786901819038576 1347.02567011079213444 0.400949786901819038576 1105.83544878671796141
0.504765875584169521062 1619.01274771032331046 0.504765875584169521062 1267.38057433143944763
0.635462587779443310865 1927.67615601251850421 0.635462587779443310865 1422.81220315319728797
0.799999999999997157829 2270.01870424280195948 0.799999999999997157829 1558.05180722881505062
1.007140329435330272645 2639.39095867827836628 1.007140329435330272645 1656.50300200528909045
1.267914553968893187630 3025.15501661106145548 1.267914553968893187630 1701.83468802950528698
1.596209851975103788391 3413.20872256181473858 1.596209851975103788391 1682.29673320942197279
2.009509145207687197399 3787.65097809400003825 2.009509145207687197399 1595.39975714353363401
2.529822128134711078928 4133.44658389701635315 2.529822128134711078928 1450.79694684151127149
3.184857364427983839050 4439.36409068008833856 3.184857364427983839050 1269.26208563546128971
4.009497869018190385759 4700.08477830145602638 4.009497869018190385759 1077.22351645098228801
5.009497869018190385759 4910.10912269411164743 5.009497869018190385759 903.83270441419119834
6.009497869018190385759 5054.62934419561224786 6.009497869018190385759 782.20825693827953273
7.009497869018204596614 5160.97163785206976172 7.009497869018204596614 697.59530856080345984
8.009497869018190385759 5243.45272407806714909 8.009497869018190385759 638.04354825384132255
9.009497869018204596614 5310.09894975842689746 9.009497869018204596614 596.30838630932532851
10.009497869018190385759 5365.68215148473518639 10.009497869018190385759 566.53360857942504936
11.009497869018190385759 5413.19388684072418982 11.009497869018190385759 542.38202234808431967
12.009497869018190385759 5454.59423228157629637 12.009497869018190385759 523.96649139333101175
13.009497869018190385759 5491.22280713884447323 13.009497869018190385759 509.62639877062247251
14.009497869018204596614 5524.02758280774742161 14.009497869018204596614 498.23710690817023305
15.009497869018190385759 5553.70067143040159863 15.009497869018190385759 489.02004624333113725
16.009497869018190385759 5580.76144186426245142 16.009497869018190385759 481.43015237959832575
17.009497869018190385759 5605.60927149438066408 17.009497869018190385759 475.22342847863296811
18.009497869018190385759 5628.55777852128812810 18.009497869018190385759 469.78928932420495812
19.009497869018204596614 5649.85694750998209201 19.009497869018204596614 465.29472648895591647
20.009497869018190385759 5669.71029744117095106 20.009497869018190385759 461.17229016616732906
21.009497869018204596614 5688.28596978087080061 21.009497869018204596614 457.54079586391111434
22.009497869018190385759 5705.72340555294067599 22.009497869018190385759 454.30762935327828700
23.009497869018190385759 5722.14063129566602584 23.009497869018190385759 451.45167993720855293
24.009497869018190385759 5737.63832160593483422 24.009497869018190385759 448.80549894049397608
25.009497869018190385759 5752.30241104900596838 25.009497869018190385759 446.38693324201886981
26.009497869018204596614 5766.20804571286316786 26.009497869018204596614 444.20953896105646663
27.009497869018190385759 5779.41992568537079933 27.009497869018190385759 442.13513018835050161
28.009497869018190385759 5791.99554058046396676 28.009497869018190385759 440.20061950582174859
29.009497869018190385759 5803.98496768283166602 29.009497869018190385759 438.40058010345245521
30.009497869018190385759 5815.43315924721991905 30.009497869018190385759 436.68705532989503126
31.009497869018190385759 5826.37979518917018140 31.009497869018190385759 435.06512291813413640
32.009497869018190385759 5836.86060234185879381 32.009497869018190385759 433.52149806660094100
33.009497869018190385759 5846.90765666329571104 33.009497869018190385759 432.05601386734423386
34.009497869018190385759 5856.54976750145851838 34.009497869018190385759 430.63967021225488452
35.009497869018190385759 5865.81327134514231147 35.009497869018190385759 429.27308991211407374
36.009497869018190385759 5874.72181902026659372 36.009497869018190385759 427.95690491109849063
37.009497869018190385759 5883.29709658287174534 37.009497869018190385759 426.68339990555654140
38.009497869018190385759 5891.55893432732136716 38.009497869018190385759 425.44784028007342158
39.009497869018190385759 5899.52537579854470096 39.009497869018190385759 424.23702647670785382
40.009497869018190385759 5907.21309011949415435 40.009497869018190385759 423.04217522607865476
41.009497869018190385759 5914.63742696800272824 41.009497869018190385759 421.90833149931614798
42.009497869018190385759 5921.81247644861650770 42.009497869018190385759 420.77374621198981686
43.009497869018190385759 5928.75131309613061603 43.009497869018190385759 419.68883758460708577
44.009497869018218807469 5935.46606564789908589 44.009497869018218807469 418.59610187404291537
46.009497869018190385759 5948.26740834977772465 46.009497869018190385759 416.47540785065416458
48.009497869018190385759 5960.29735570305820147 48.009497869018190385759 414.43481236902744058
50.009497869018190385759 5971.62626196329529193 50.009497869018190385759 412.41466994816346414
52.009497869018190385759 5982.31565560570834350 52.009497869018190385759 410.45174560642510642
54.009497869018190385759 5992.41984737373422831 54.009497869018190385759 408.55552981055353712
56.009497869018190385759 6001.98671056208786467 56.009497869018190385759 406.69735775813501277
58.009497869018218807469 6011.05905094112040388 58.009497869018218807469 404.78694903679564732
60.009497869018190385759 6019.67481530832810677 60.009497869018190385759 403.00097594427575132
62.009497869018190385759 6027.86830363360422780 62.009497869018190385759 401.24692742554327651
64.009497869018190385759 6035.67015182674276730 64.009497869018190385759 399.52299949800658396
66.009497869018190385759 6043.10813385915389517 66.009497869018190385759 397.79984585327753166
68.009497869018190385759 6050.20747131997450197 68.009497869018190385759 396.08906927474930626
70.009497869018190385759 6056.99076484124816488 70.009497869018190385759 394.46107953391367573
72.009497869018218807469 6063.47902769868687756 72.009497869018218807469 392.83572136623581628
74.009497869018190385759 6069.69116560133534222 74.009497869018190385759 391.25837450242744353
76.009497869018190385759 6075.64447634837142687 76.009497869018190385759 389.71396800086591838
78.009497869018190385759 6081.35508495050089550 78.009497869018190385759 388.19088166842277587
80.009497869018190385759 6086.83753178691949870 80.009497869018190385759 386.71055505311403522
82.009497869018218807469 6092.10526302641119401 82.009497869018218807469 385.26822777314265522
84.009497869018190385759 6097.17089893363754527 84.009497869018190385759 383.87499191366748619
86.009497869018190385759 6102.04584237467588537 86.009497869018190385759 382.48711528381630842
88.009497869018190385759 6106.74065977183454379 88.009497869018190385759 381.15526715599293084
91.009497869018218807469 6113.46697197936919110 91.009497869018218807469 379.20422134065614728
94.009497869018190385759 6119.84080710029047623 94.009497869018190385759 377.33010994035555541
97.009497869018190385759 6125.88955680518301961 97.009497869018190385759 375.51873616745700701
99.504748934509109403734 6130.69085029863072123 99.504748934509109403734 374.35686184813636146
nan nan nan nan

