Time Pressure difference Time.1 Pressure.1 difference.1
(hr) (psi) (hr) (psi)
0.000200000000006639311 0.78066972829954118 0.000200000000006639311 0.62232199144186973
0.000399999999999067768 1.56089731536350085 0.000399999999999067768 1.62894544568263755
0.000600000000005707079 2.34075018900966958 0.000600000000005707079 2.38330816918559529
0.000799999999998135536 3.12026064676818171 0.000799999999998135536 3.15128321857862126
0.001007140329434719206 3.92725591844835309 0.001007140329434719206 3.95747506683531158
0.001267914553963578328 4.94272626270482451 0.001267914553963578328 4.97956815755310966
0.001596209851982166583 6.22040169868576065 0.001596209851982166583 6.26494528220785440
0.002009509145210586212 7.82779250883420019 0.002009509145210586212 7.88105724350425252
0.002529822128138903281 9.84968718042945923 0.002529822128138903281 9.91243631094227595
0.003184857364445292660 12.39251857527443512 0.003184857364445292660 12.46491423247274888
0.004009497869020606231 15.58980306492699341 0.004009497869020606231 15.67082281273414601
0.005047658755842121536 19.60889965090486342 0.005047658755842121536 19.69537300833784244
0.006354625877804664924 24.65938362464677525 0.006354625877804664924 24.74442831170972568
0.008000000000009777068 31.00338050111598420 0.008000000000009777068 31.07389713594852765
0.010071403294347192059 38.96825724724696727 0.010071403294347192059 39.00095616707056934
0.012679145539692626699 48.96211257400165096 0.012679145539692626699 48.91726495649213291
0.015962098519750611558 61.49253468863535232 0.015962098519750611558 61.30421463255589742
0.020095091452091651263 77.18908429822184303 0.020095091452091651263 76.75003021769538236
0.025298221281346400247 96.82988247131761739 0.025298221281346400247 95.96815777334734321
0.031848573644282396344 121.37249072237814573 0.031848573644282396344 119.81573159393046524
0.040094978690191851456 151.98889552577060158 0.040094978690191851456 149.30992148254742347
0.050476587558421215363 190.10375323313780882 0.050476587558421215363 185.63846504095607770
0.063546258777947173257 237.43398009402775983 0.063546258777947173257 230.15853329235591218
0.079999999999998294697 296.02611322153143192 0.079999999999998294697 284.37510320847627554
0.100714032943542974863 368.28541671925097489 0.100714032943542974863 349.88612234844828208
0.126791455396897845276 456.98724904557940363 0.126791455396897845276 428.27702211599415705
0.159620985197506115583 565.25657806564595376 0.159620985197506115583 520.94201293593084756
0.200950914520774404082 696.49573372122574710 0.200950914520774404082 628.80530504184901019
0.252982212813464002465 854.23394914462699035 0.252982212813464002465 751.91480653391795386
0.318485736442795541734 1041.86632147471664211 0.318485736442795541734 888.89010079780746310
0.400949786901819038576 1262.24783073318963034 0.400949786901819038576 1036.23741354839285123
0.504765875584169521062 1517.11684051177167021 0.504765875584169521062 1187.61536335953087473
0.635462587779443310865 1806.35388045928311840 0.635462587779443310865 1333.26458197572333120
0.799999999999997157829 2127.15039418556307282 0.799999999999997157829 1459.99260257805030960
1.007140329435330272645 2473.27544379642858985 1.007140329435330272645 1552.24756831264835455
1.267914553968893187630 2834.76064493623971430 1.267914553968893187630 1594.72621116051527679
1.596209851975103788391 3198.39139037260974874 1.596209851975103788391 1576.41791783260532611
2.009509145207687197399 3549.26735010206994048 2.009509145207687197399 1494.98998221841611667
2.529822128134711078928 3873.29959609930301667 2.529822128134711078928 1359.48804808924819554
3.184857364427983839050 4159.96355350441899645 3.184857364427983839050 1189.37845786819434579
4.009497869018190385759 4404.27524679996531631 4.009497869018190385759 1009.42623219882261765
5.009497869018190385759 4601.08127581126427685 5.009497869018190385759 846.94812861189950581
6.009497869018190385759 4736.50581903644797421 6.009497869018190385759 732.97836664146473140
7.009497869018204596614 4836.15524106417706207 7.009497869018204596614 653.69070872131226224
8.009497869018190385759 4913.44520997525160055 8.009497869018190385759 597.88696130080234070
9.009497869018204596614 4975.89691795544877095 9.009497869018204596614 558.77848787027687649
10.009497869018190385759 5027.98187621646502521 10.009497869018190385759 530.87764720030031640
11.009497869018190385759 5072.50336249410429446 11.009497869018190385759 508.24609087163150889
12.009497869018190385759 5111.29809178832965699 12.009497869018190385759 490.98957934759692989
13.009497869018190385759 5145.62137172451184597 13.009497869018190385759 477.55201003680707572
14.009497869018204596614 5176.36151116250493942 14.009497869018204596614 466.87952675311049688
15.009497869018190385759 5204.16706273897762003 15.009497869018190385759 458.24256081542921493
16.009497869018190385759 5229.52470776091740845 16.009497869018190385759 451.13035257948376966
17.009497869018190385759 5252.80868797375660506 17.009497869018190385759 445.31426165130642403
18.009497869018190385759 5274.31288336959914886 18.009497869018190385759 440.22213125484944385
19.009497869018204596614 5294.27154521914417273 19.009497869018204596614 436.01044300363696493
20.009497869018190385759 5312.87538361620227079 20.009497869018190385759 432.14746071514980486
21.009497869018204596614 5330.28195769676040072 21.009497869018204596614 428.74452199835030797
22.009497869018190385759 5346.62193247618233727 22.009497869018190385759 425.71484149188313495
23.009497869018190385759 5362.00590624908636528 23.009497869018190385759 423.03863714395765783
24.009497869018190385759 5376.52821744891753042 24.009497869018190385759 420.55899900717616902
25.009497869018190385759 5390.26939217179551633 25.009497869018190385759 418.29265073028335564
26.009497869018204596614 5403.29984703163518134 26.009497869018204596614 416.25229525022075450
27.009497869018190385759 5415.68021008279538364 27.009497869018190385759 414.30844367299977193
28.009497869018190385759 5427.46435271176324022 28.009497869018190385759 412.49568541104980568
29.009497869018190385759 5438.69920048600943119 29.009497869018190385759 410.80893520183650480
30.009497869018190385759 5449.42687649739582412 30.009497869018190385759 409.20325464479674338
31.009497869018190385759 5459.68456332411642506 31.009497869018190385759 407.68340189531448914
32.009497869018190385759 5469.50573925740627601 32.009497869018190385759 406.23692825821342467
33.009497869018190385759 5478.92046148868212185 33.009497869018190385759 404.86367733023871551
34.009497869018190385759 5487.95572619017821125 34.009497869018190385759 403.53647418491016197
35.009497869018190385759 5496.63621230943408591 35.009497869018190385759 402.25590243512789357
36.009497869018190385759 5504.98408215885046957 36.009497869018190385759 401.02255425235802022
37.009497869018190385759 5513.01965693779584399 37.009497869018190385759 399.82919991150055239
38.009497869018190385759 5520.76151888014737779 38.009497869018190385759 398.67140277992893971
39.009497869018190385759 5528.22657592311134067 39.009497869018190385759 397.53679404111085205
40.009497869018190385759 5535.43044808400190959 40.009497869018190385759 396.41714321884296623
41.009497869018190385759 5542.38751897700876725 41.009497869018190385759 395.35466028607248745
42.009497869018190385759 5549.11099191688572319 42.009497869018190385759 394.29148246438205661
43.009497869018190385759 5555.61311856560405431 43.009497869018190385759 393.27485479956186509
44.009497869018218807469 5561.90526431341641000 44.009497869018218807469 392.25089266518705244
46.009497869018190385759 5573.90092810398800793 46.009497869018190385759 390.26366889501861124
48.009497869018190385759 5585.17374590356484987 48.009497869018190385759 388.35150249964812019
50.009497869018190385759 5595.78964407749390375 50.009497869018190385759 386.45850190946788416
52.009497869018190385759 5605.80627867947441700 52.009497869018190385759 384.61911826056615382
54.009497869018190385759 5615.27454229426803067 54.009497869018190385759 382.84224471758165009
56.009497869018190385759 5624.23929521202626347 56.009497869018190385759 381.10102055657409892
58.009497869018218807469 5632.74064913363781670 58.009497869018218807469 379.31084734916510115
60.009497869018190385759 5640.81416259661546064 60.009497869018190385759 377.63727815757306416
62.009497869018190385759 5648.49197683148940996 62.009497869018190385759 375.99362430085869846
64.009497869018190385759 5655.80279961387168441 64.009497869018190385759 374.37819533379638415
66.009497869018190385759 5662.77265690298281697 66.009497869018190385759 372.76349191845588393
68.009497869018190385759 5669.42518291521992069 68.009497869018190385759 371.16038659312170012
70.009497869018190385759 5675.78155586522552767 70.009497869018190385759 369.63485774506597181
72.009497869018218807469 5681.86146651485341863 72.009497869018218807469 368.11179484668258510
74.009497869018190385759 5687.68263070334887743 74.009497869018190385759 366.63372156171521965
76.009497869018190385759 5693.26125755721568567 76.009497869018190385759 365.18651546934290764
78.009497869018190385759 5698.61245722634430422 78.009497869018190385759 363.75928771726330524
80.009497869018190385759 5703.74985496116914874 80.009497869018190385759 362.37212851130971103
82.009497869018218807469 5708.68605066810596327 82.009497869018218807469 361.02057707413365506
84.009497869018190385759 5713.43287032942316728 84.009497869018190385759 359.71502738763246043
86.009497869018190385759 5718.00099914829752379 86.009497869018190385759 358.41449963658305933
88.009497869018190385759 5722.40033852745364129 88.009497869018190385759 357.16647411820321167
91.009497869018218807469 5728.70331640024869557 91.009497869018218807469 355.33822139613931768
94.009497869018190385759 5734.67600105901419738 94.009497869018190385759 353.58206106299047633
97.009497869018190385759 5740.34406022303937789 97.009497869018190385759 351.88468983523944189
99.504748934509109403734 5744.84317440570976032 99.504748934509109403734 350.79594047307887195
nan nan nan nan

