Time Pressure difference Time.1 Pressure.1 difference.1
(hr) (psi) (hr) (psi)
0.000200000000006639311 0.56095031649668525 0.000200000000006639311 0.44716953329618347
0.000399999999999067768 1.12158293236140683 0.000399999999999067768 1.17047892365682049
0.000600000000005707079 1.68194629785982652 0.000600000000005707079 1.71252633905233576
0.000799999999998135536 2.24206362038566542 0.000799999999998135536 2.26435489266736756
0.001007140329434719206 2.82193015888506382 0.001007140329434719206 2.84364413118017056
0.001267914553963578328 3.55159648300965003 0.001267914553963578328 3.57806923048059211
0.001596209851982166583 4.46967030374648555 0.001596209851982166583 4.50167710043506819
0.002009509145210586212 5.62466114174227183 0.002009509145210586212 5.66293452251798080
0.002529822128138903281 7.07749377357084875 0.002529822128138903281 7.12258216799050459
0.003184857364445292660 8.90464554342747228 0.003184857364445292660 8.95666545062540820
0.004009497869020606231 11.20205465432920455 0.004009497869020606231 11.26027140275353489
0.005047658755842121536 14.08997693465871848 0.005047658755842121536 14.15211237486109397
0.006354625877804664924 17.71900273242209778 0.006354625877804664924 17.78011160137777580
0.008000000000009777068 22.27748236434133844 0.008000000000009777068 22.32815209981802340
0.010071403294347192059 28.00064539940773756 0.010071403294347192059 28.02414121173300643
0.012679145539692626699 35.18173120989031588 0.012679145539692626699 35.14950594954765251
0.015962098519750611558 44.18546735622625476 0.015962098519750611558 44.05014995985359150
0.020095091452091651263 55.46422475160077425 0.020095091452091651263 55.14874239523101807
0.025298221281346400247 69.57712237278046530 0.025298221281346400247 68.95792999918562316
0.031848573644282396344 87.21221614806275113 0.031848573644282396344 86.09360671035089752
0.040094978690191851456 109.21163708354946209 0.040094978690191851456 107.28665999918652574
0.050476587558421215363 136.59907215259582358 0.050476587558421215363 133.39053884606011025
0.063546258777947173257 170.60821170935469127 0.063546258777947173257 165.38043863437940217
0.079999999999998294697 212.70959521461850272 0.079999999999998294697 204.33776072762580611
0.100714032943542974863 264.63152544645538455 0.100714032943542974863 251.41071051476981779
0.126791455396897845276 328.36823652102401638 0.126791455396897845276 307.73849989997876264
0.159620985197506115583 406.16517443096529405 0.159620985197506115583 374.32293893264119333
0.200950914520774404082 500.46708371866327525 0.200950914520774404082 451.82811897463352580
0.252982212813464002465 613.80989522758920884 0.252982212813464002465 540.28846439644007660
0.318485736442795541734 748.63315636882623494 0.318485736442795541734 638.71207669266766516
0.400949786901819038576 906.98831334133251403 0.400949786901819038576 744.58850397826950029
0.504765875584169521062 1090.12446748926890905 0.504765875584169521062 853.36114595343678957
0.635462587779443310865 1297.95577337905842796 0.635462587779443310865 958.01740751773729698
0.799999999999997157829 1528.46414251713144949 0.799999999999997157829 1049.07784023198928480
1.007140329435330272645 1777.17233381534424552 1.007140329435330272645 1115.36765569586896163
1.267914553968893187630 2036.91756363222339132 1.267914553968893187630 1145.89068904284386008
1.596209851975103788391 2298.20447453213137123 1.596209851975103788391 1132.73526292023007045
2.009509145207687197399 2550.32643280255342688 2.009509145207687197399 1074.22521110363800290
2.529822128134711078928 2783.15983770888033177 2.529822128134711078928 976.86028188928935378
3.184857364427983839050 2989.14225486351642758 3.184857364427983839050 854.62801770060025319
4.009497869018190385759 3164.69244812705392178 4.009497869018190385759 725.32332676120097403
5.009497869018190385759 3306.10744125457631526 5.009497869018190385759 608.57466810705784610
6.009497869018190385759 3403.41676122661601767 6.009497869018190385759 526.68168349290749575
7.009497869018204596614 3475.01986404824720012 7.009497869018204596614 469.70952844153998740
8.009497869018190385759 3530.55657944916811175 8.009497869018190385759 429.61173978330577938
9.009497869018204596614 3575.43126087630344045 9.009497869018204596614 401.51034203045480808
10.009497869018190385759 3612.85691318752378720 10.009497869018190385759 381.46218999253989068
11.009497869018190385759 3644.84783189874860909 11.009497869018190385759 365.20028277982902409
12.009497869018190385759 3672.72378876901348121 12.009497869018190385759 352.80061458452058787
13.009497869018190385759 3697.38678522635473200 13.009497869018190385759 343.14504772367587293
14.009497869018204596614 3719.47511569672496989 14.009497869018204596614 335.47633372238431093
15.009497869018190385759 3739.45479774634395653 15.009497869018190385759 329.27024092707813452
16.009497869018190385759 3757.67553628023233614 16.009497869018190385759 324.15976294090836518
17.009497869018190385759 3774.40624274446872732 17.009497869018190385759 319.98061018441421766
18.009497869018190385759 3789.85808463870944252 18.009497869018190385759 316.32165934516893913
19.009497869018204596614 3804.19938323848964501 19.009497869018204596614 313.29535030325303069
20.009497869018190385759 3817.56717330204764949 20.009497869018190385759 310.51960396802877540
21.009497869018204596614 3830.07466896334381090 21.009497869018204596614 308.07442199028582763
22.009497869018190385759 3841.81575958309895213 22.009497869018190385759 305.89744473937020075
23.009497869018190385759 3852.86991557770170402 23.009497869018190385759 303.97445781985874191
24.009497869018190385759 3863.30492383856108063 24.009497869018190385759 302.19271357232065611
25.009497869018190385759 3873.17864640062907711 25.009497869018190385759 300.56422877634435054
26.009497869018204596614 3882.54168112934075907 26.009497869018204596614 299.09813112862343587
27.009497869018190385759 3891.43759231962076228 27.009497869018190385759 297.70137637057769098
28.009497869018190385759 3899.90508926197071560 28.009497869018190385759 296.39881872819569253
29.009497869018190385759 3907.97789032790069541 29.009497869018190385759 295.18680418554140488
30.009497869018190385759 3915.68626306955684413 30.009497869018190385759 294.03304225009912898
31.009497869018190385759 3923.05692503246791603 31.009497869018190385759 292.94095189492747977
32.009497869018190385759 3930.11393204636669907 32.009497869018190385759 291.90158810878023132
33.009497869018190385759 3936.87888170935184462 33.009497869018190385759 290.91483850808191391
34.009497869018190385759 3943.37117212385874154 34.009497869018190385759 289.96117654651328621
35.009497869018190385759 3949.60853635027615383 35.009497869018190385759 289.04102157918572402
36.009497869018190385759 3955.60689912053885564 36.009497869018190385759 288.15479911096940668
37.009497869018190385759 3961.38086223462096314 37.009497869018190385759 287.29731422212302050
38.009497869018190385759 3966.94377795865557346 38.009497869018190385759 286.46537896979964444
39.009497869018190385759 3972.30779549272619988 39.009497869018190385759 285.65010573956152484
40.009497869018190385759 3977.48413860193750224 40.009497869018190385759 284.84558052185514043
41.009497869018190385759 3982.48314263380007105 41.009497869018190385759 284.08213329724185314
42.009497869018190385759 3987.31429483153578985 42.009497869018190385759 283.31818676012102287
43.009497869018190385759 3991.98639862816344248 43.009497869018190385759 282.58768884318197934
44.009497869018218807469 3996.50762062605781466 44.009497869018218807469 281.85192074236255166
46.009497869018190385759 4005.12710612162845791 46.009497869018190385759 280.42400089045042932
48.009497869018190385759 4013.22719055330799165 48.009497869018190385759 279.05001352320130081
50.009497869018190385759 4020.85524531794317227 50.009497869018190385759 277.68979774731485577
52.009497869018190385759 4028.05269917906798582 52.009497869018190385759 276.36810843030019669
54.009497869018190385759 4034.85612100888783971 54.009497869018190385759 275.09133575655653203
56.009497869018190385759 4041.29774517367377484 56.009497869018190385759 273.84017895003302101
58.009497869018218807469 4047.40639394037498278 58.009497869018218807469 272.55384980099927361
60.009497869018190385759 4053.20761789991365731 60.009497869018190385759 271.35130647996192010
62.009497869018190385759 4058.72451213691283556 62.009497869018190385759 270.17025882599017450
64.009497869018190385759 4063.97770462659855184 64.009497869018190385759 269.00949216948697540
66.009497869018190385759 4068.98589632474477185 66.009497869018190385759 267.84924685825080815
68.009497869018190385759 4073.76606960006301961 68.009497869018190385759 266.69733535582520290
70.009497869018190385759 4078.33344206094079709 70.009497869018190385759 265.60116643941842085
72.009497869018218807469 4082.70216250640896760 72.009497869018218807469 264.50676943141155562
74.009497869018190385759 4086.88496065464505591 74.009497869018190385759 263.44469971492117111
76.009497869018190385759 4090.89348357522749211 76.009497869018190385759 262.40480962296066991
78.009497869018190385759 4094.73858866796945222 78.009497869018190385759 261.37927496954739581
80.009497869018190385759 4098.43006635802612436 80.009497869018190385759 260.38253157422462891
82.009497869018218807469 4101.97697030949166219 82.009497869018218807469 259.41137414495318581
84.009497869018190385759 4105.38779808318940923 84.009497869018190385759 258.47327127853333195
86.009497869018190385759 4108.67022753299806936 86.009497869018190385759 257.53877692436782354
88.009497869018190385759 4111.83137331290345173 88.009497869018190385759 256.64200805508414760
91.009497869018218807469 4116.36037873535951803 91.009497869018218807469 255.32831686673549143
94.009497869018190385759 4120.65205193366273306 94.009497869018190385759 254.06642767212750300
97.009497869018190385759 4124.72483645024385623 97.009497869018190385759 252.84678139547054343
99.504748934509109403734 4127.95767542585144838 99.504748934509109403734 252.06446042521872641
nan nan nan nan

