Time Pressure difference Time.1 Pressure.1 difference.1
(hr) (psi) (hr) (psi)
0.000200000000006639311 0.26549428926178426 0.000200000000006639311 0.21164255359270406
0.000399999999999067768 0.53083821279419696 0.000399999999999067768 0.55398038078119549
0.000600000000005707079 0.79605470180606031 0.000600000000005707079 0.81052804474435480
0.000799999999998135536 1.06115474021220679 0.000799999999998135536 1.07170506047609826
0.001007140329434719206 1.33560195947230764 0.001007140329434719206 1.34587904724996199
0.001267914553963578328 1.68094848379833595 0.001267914553963578328 1.69347787021262453
0.001596209851982166583 2.11546710221829182 0.001596209851982166583 2.13061571964211671
0.002009509145210586212 2.66211706856941355 0.002009509145210586212 2.68023162119174474
0.002529822128138903281 3.34973369995415560 0.002529822128138903281 3.37107375606672255
0.003184857364445292660 4.21451324681507966 0.003184857364445292660 4.23913394473220340
0.004009497869020606231 5.30186266280566176 0.004009497869020606231 5.32941628705990667
0.005047658755842121536 6.66869828213075788 0.005047658755842121536 6.69810659878440529
0.006354625877804664924 8.38629357810482112 0.006354625877804664924 8.41521602498443677
0.008000000000009777068 10.54379358193603267 0.008000000000009777068 10.56777525199102286
0.010071403294347192059 13.25253098280573916 0.010071403294347192059 13.26365140436621459
0.012679145539692626699 16.65129414830120069 0.012679145539692626699 16.63604213339124627
0.015962098519750611558 20.91270635999432415 0.015962098519750611558 20.84866147951527893
0.020095091452091651263 26.25087195216712743 0.020095091452091651263 26.10155611881111781
0.025298221281346400247 32.93041845239905996 0.025298221281346400247 32.63735856044542061
0.031848573644282396344 41.27699844396442330 0.031848573644282396344 40.74756756765865617
0.040094978690191851456 51.68918728435055954 0.040094978690191851456 50.77810762572774195
0.050476587558421215363 64.65148963898823808 0.050476587558421215363 63.13291081883259892
0.063546258777947173257 80.74780346481327342 0.063546258777947173257 78.27353104505493775
0.079999999999998294697 100.67412592501973734 0.079999999999998294697 96.71178883102764701
0.100714032943542974863 125.24845195462799552 0.100714032943542974863 118.99112263236139597
0.126791455396897845276 155.41464013383779275 0.126791455396897845276 145.65071434435196807
0.159620985197506115583 192.23544605857256329 0.159620985197506115583 177.16471442064175790
0.200950914520774404082 236.86795208642965349 0.200950914520774404082 213.84743316455205786
0.252982212813464002465 290.51239848308745195 0.252982212813464002465 255.71516341611925327
0.318485736442795541734 354.32340783628421832 0.318485736442795541734 302.29844579371064128
0.400949786901819038576 429.27191684849418607 0.400949786901819038576 352.40909906389902062
0.504765875584169521062 515.94911740219106377 0.504765875584169521062 403.89051269903018238
0.635462587779443310865 614.31437938860472059 0.635462587779443310865 453.42366913673322415
0.799999999999997157829 723.41255409935445186 0.799999999999997157829 496.52200450149052813
1.007140329435330272645 841.12459122714369641 1.007140329435330272645 527.89656107860855627
1.267914553968893187630 964.06038990901959096 1.267914553968893187630 542.34292255885327450
1.596209851975103788391 1087.72585664057828581 1.596209851975103788391 536.11654135245316866
2.009509145207687197399 1207.05360840358230234 2.009509145207687197399 508.42409843035682115
2.529822128134711078928 1317.25220805509343336 2.529822128134711078928 462.34188415828378993
3.184857364427983839050 1414.74240252442382371 3.184857364427983839050 404.49011520250962803
4.009497869018190385759 1497.82921506310117366 4.009497869018190385759 343.29101073712627112
5.009497869018190385759 1564.76005008933202589 5.009497869018190385759 288.03459811001698654
6.009497869018190385759 1610.81594485354685276 6.009497869018190385759 249.27515880450670238
7.009497869018204596614 1644.70524722758273128 7.009497869018204596614 222.31059283805822702
8.009497869018190385759 1670.99042855235097704 8.009497869018190385759 203.33255933364173984
9.009497869018204596614 1692.22933563730066453 9.009497869018204596614 190.03234288978501354
10.009497869018190385759 1709.94266365997054891 10.009497869018190385759 180.54367745937716450
11.009497869018190385759 1725.08376613605469174 11.009497869018190385759 172.84701811092796220
12.009497869018190385759 1738.27728281500776575 12.009497869018190385759 166.97833242205055626
13.009497869018190385759 1749.95012535193950498 13.009497869018190385759 162.40841279503354144
14.009497869018204596614 1760.40439452115037966 14.009497869018204596614 158.77885824546083882
15.009497869018190385759 1769.86065353276535461 15.009497869018190385759 155.84155319842420795
16.009497869018190385759 1778.48441553916040903 16.009497869018190385759 153.42279581327858295
17.009497869018190385759 1786.40295465205554137 17.009497869018190385759 151.44482885582809217
18.009497869018190385759 1793.71621513315767515 18.009497869018190385759 149.71307022419716759
19.009497869018204596614 1800.50386239329100135 19.009497869018204596614 148.28073701296395370
20.009497869018190385759 1806.83075412960420181 20.009497869018190385759 146.96699356943793191
21.009497869018204596614 1812.75047388621146638 21.009497869018204596614 145.80970417641125891
22.009497869018190385759 1818.30745891247579493 22.009497869018190385759 144.77935440928646926
23.009497869018190385759 1823.53932206125637094 23.009497869018190385759 143.86921668328625401
24.009497869018190385759 1828.47814644584718735 24.009497869018190385759 143.02592823378378739
25.009497869018190385759 1833.15131780682600038 25.009497869018190385759 142.25517652767635468
26.009497869018204596614 1837.58278379860507812 26.009497869018204596614 141.56128164693006966
27.009497869018190385759 1841.79316313050276221 27.009497869018190385759 140.90020632376007370
28.009497869018190385759 1845.80077666849956586 28.009497869018190385759 140.28371390844870348
29.009497869018190385759 1849.62158310771542347 29.009497869018190385759 139.71007497802332864
30.009497869018190385759 1853.26990789197134291 30.009497869018190385759 139.16400664359292705
31.009497869018190385759 1856.75839626907600177 31.009497869018190385759 138.64712708380099571
32.009497869018190385759 1860.09843371333954565 32.009497869018190385759 138.15520268056511100
33.009497869018190385759 1863.30024223335794886 33.009497869018190385759 137.68818024343937623
34.009497869018190385759 1866.37300283013496482 34.009497869018190385759 137.23681797972957952
35.009497869018190385759 1869.32510845064985006 35.009497869018190385759 136.80131436759677399
36.009497869018190385759 1872.16409617129352227 36.009497869018190385759 136.38187079584457706
37.009497869018190385759 1874.89687693300311366 37.009497869018190385759 135.97602854133123174
38.009497869018190385759 1877.52977028013538074 38.009497869018190385759 135.58227877057282740
39.009497869018190385759 1880.06852635338236723 39.009497869018190385759 135.19641503103875380
40.009497869018190385759 1882.51845729082788239 40.009497869018190385759 134.81563825886021846
41.009497869018190385759 1884.88445474804484547 41.009497869018190385759 134.45430344483699514
42.009497869018190385759 1887.17100897813065785 42.009497869018190385759 134.09273230931543708
43.009497869018190385759 1889.38228659107448948 43.009497869018190385759 133.74699219729234301
44.009497869018218807469 1891.52215278889093497 44.009497869018218807469 133.39875774007961695
46.009497869018190385759 1895.60170156201706959 46.009497869018190385759 132.72293217218648920
48.009497869018190385759 1899.43542104822722649 48.009497869018190385759 132.07263251320654263
50.009497869018190385759 1903.04573183445677387 50.009497869018190385759 131.42885086260156413
52.009497869018190385759 1906.45224189632449452 52.009497869018190385759 130.80330354490467926
54.009497869018190385759 1909.67225905316786339 54.009497869018190385759 130.19901499457199634
56.009497869018190385759 1912.72103962967639745 56.009497869018190385759 129.60685027457051888
58.009497869018218807469 1915.61222502519240152 58.009497869018218807469 128.99803870403377459
60.009497869018190385759 1918.35790817518159201 60.009497869018190385759 128.42888244378019635
62.009497869018190385759 1920.96901983928069058 62.009497869018190385759 127.86989994879948540
64.009497869018190385759 1923.45532310962153133 64.009497869018190385759 127.32051632354055926
66.009497869018190385759 1925.82566903203792208 66.009497869018190385759 126.77137944774780465
68.009497869018190385759 1928.08809525581591515 68.009497869018190385759 126.22618691173330774
70.009497869018190385759 1930.24980418017821648 70.009497869018190385759 125.70737699432413592
72.009497869018218807469 1932.31749234353742395 72.009497869018218807469 125.18940571011911800
74.009497869018190385759 1934.29718464218376539 74.009497869018190385759 124.68673473154281339
76.009497869018190385759 1936.19439356156885879 76.009497869018190385759 124.19456123104518497
78.009497869018190385759 1938.01425784136858965 78.009497869018190385759 123.70918207015671442
80.009497869018190385759 1939.76141122879857903 80.009497869018190385759 123.23742963231106273
82.009497869018218807469 1941.44013876665871976 82.009497869018218807469 122.77778687275974789
84.009497869018190385759 1943.05446229753329135 84.009497869018190385759 122.33378863182808516
86.009497869018190385759 1944.60801570181979514 86.009497869018190385759 121.89149827726012632
88.009497869018190385759 1946.10416630091435763 88.009497869018190385759 121.46706315960214795
91.009497869018218807469 1948.24771634507396811 91.009497869018218807469 120.84530130636295553
94.009497869018190385759 1950.27893852646616324 94.009497869018190385759 120.24805701395946755
97.009497869018190385759 1952.20656205879481604 97.009497869018190385759 119.67080603138740003
99.504748934509109403734 1953.73664460066243009 99.504748934509109403734 119.30053839116435199
nan nan nan nan

