Time Pressure difference Time.1 Pressure.1 difference.1
(hr) (psi) (hr) (psi)
0.000200000000006639311 0.67081002239811327 0.000200000000006639311 0.53474576236902649
0.000399999999999067768 1.34124012386245361 0.000399999999999067768 1.39971218466972891
0.000600000000005707079 2.01134824343474783 0.000600000000005707079 2.04791725411896541
0.000799999999998135536 2.68116213357692379 0.000799999999998135536 2.70781905562299441
0.001007140329434719206 3.37459303866670801 0.001007140329434719206 3.40055959900774107
0.001267914553963578328 4.24716137285723772 0.001267914553963578328 4.27881869401685133
0.001596209851982166583 5.34503600121612266 0.001596209851982166583 5.38331119132146085
0.002009509145210586212 6.72622682528823645 0.002009509145210586212 6.77199588301111621
0.002529822128138903281 8.46359047700015488 0.002529822128138903281 8.51750923946639027
0.003184857364445292660 10.64858205935095370 0.003184857364445292660 10.71078984154907765
0.004009497869020606231 13.39592885962809810 0.004009497869020606231 13.46554710774384134
0.005047658755842121536 16.84943829278178740 0.005047658755842121536 16.92374269159946820
0.006354625877804664924 21.18919317853443829 0.006354625877804664924 21.26226995654375074
0.008000000000009777068 26.64043143272866132 0.008000000000009777068 26.70102461788327375
0.010071403294347192059 33.48445132332735596 0.010071403294347192059 33.51254868940178966
0.012679145539692626699 42.07192189194597631 0.012679145539692626699 42.03338545301988916
0.015962098519750611558 52.83900102243080710 0.015962098519750611558 52.67718229620474801
0.020095091452091651263 66.32665452491130509 0.020095091452091651263 65.94938630646319666
0.025298221281346400247 83.20350242204904134 0.025298221281346400247 82.46304388626649029
0.031848573644282396344 104.29235343522044843 0.031848573644282396344 102.95466915214068138
0.040094978690191851456 130.60026630466003894 0.040094978690191851456 128.29829074086694618
0.050476587558421215363 163.35141269286683041 0.050476587558421215363 159.51450194350806555
0.063546258777947173257 204.02109590169123976 0.063546258777947173257 197.76948596336765718
0.079999999999998294697 254.36785421807493890 0.079999999999998294697 244.35643196805099819
0.100714032943542974863 316.45847108285312288 0.100714032943542974863 300.64841643160900730
0.126791455396897845276 392.67774278330176685 0.126791455396897845276 368.00776100798645984
0.159620985197506115583 485.71087624830562390 0.159620985197506115583 447.63247593428604887
0.200950914520774404082 598.48140871994451118 0.200950914520774404082 540.31671200824132484
0.252982212813464002465 734.02192218610798591 0.252982212813464002465 646.10163546517901523
0.318485736442795541734 895.24973892177149537 0.318485736442795541734 763.80108874523750728
0.400949786901819038576 1084.61807203726129956 0.400949786901819038576 890.41295876333117576
0.504765875584169521062 1303.62065400052028963 0.504765875584169521062 1020.48825465648383215
0.635462587779443310865 1552.15482691917077318 0.635462587779443310865 1145.64099474673048462
0.799999999999997157829 1827.80726835134737485 0.799999999999997157829 1254.53522140501991089
1.007140329435330272645 2125.22388880588641769 1.007140329435330272645 1333.80761200425877178
1.267914553968893187630 2435.83910428423132544 1.267914553968893187630 1370.30845010167968212
1.596209851975103788391 2748.29793245237033261 1.596209851975103788391 1354.57659037641769828
2.009509145207687197399 3049.79689145231168368 2.009509145207687197399 1284.60759666102717347
2.529822128134711078928 3328.22971690409121948 2.529822128134711078928 1168.17416498926877466
3.184857364427983839050 3574.55290418396771202 3.184857364427983839050 1022.00323778439735634
4.009497869018190385759 3784.48384746350939167 4.009497869018190385759 867.37477948001173900
5.009497869018190385759 3953.59435853292052343 5.009497869018190385759 727.76139835947867596
6.009497869018190385759 4069.96129013153176857 6.009497869018190385759 629.83002506718605673
7.009497869018204596614 4155.58755255621144897 7.009497869018204596614 561.70011858142618166
8.009497869018190385759 4222.00089471220962878 8.009497869018190385759 513.74935054205400320
9.009497869018204596614 4275.66408941587633308 9.009497869018204596614 480.14441495036584229
10.009497869018190385759 4320.41939470199395146 10.009497869018190385759 456.16991859642007512
11.009497869018190385759 4358.67559719642667915 11.009497869018190385759 436.72318682573018123
12.009497869018190385759 4392.01094027867202385 12.009497869018190385759 421.89509696605875888
13.009497869018190385759 4421.50407847543374373 13.009497869018190385759 410.34852888024153117
14.009497869018204596614 4447.91831342961540940 14.009497869018204596614 401.17793023774743233
15.009497869018190385759 4471.81093024266101565 15.009497869018190385759 393.75640087125367472
16.009497869018190385759 4493.60012202057441755 16.009497869018190385759 387.64505776019603900
17.009497869018190385759 4513.60746535911221144 17.009497869018190385759 382.64743591786032084
18.009497869018190385759 4532.08548400415384094 18.009497869018190385759 378.27189530000913464
19.009497869018204596614 4549.23546422881736362 19.009497869018204596614 374.65289665344499781
20.009497869018190385759 4565.22127845912473276 20.009497869018190385759 371.33353234158926170
21.009497869018204596614 4580.17831333005142369 21.009497869018204596614 368.40947199431809622
22.009497869018190385759 4594.21884602964109945 22.009497869018190385759 365.80614311562663943
23.009497869018190385759 4607.43791091339426202 23.009497869018190385759 363.50654748190822829
24.009497869018190385759 4619.91657064373885078 24.009497869018190385759 361.37585628974841256
25.009497869018190385759 4631.72401928621275147 25.009497869018190385759 359.42843975331385309
26.009497869018204596614 4642.92076408048797020 26.009497869018204596614 357.67521318942209518
27.009497869018190385759 4653.55890120120875508 27.009497869018190385759 356.00491002178870303
28.009497869018190385759 4663.68472098686652316 28.009497869018190385759 354.44725206962272068
29.009497869018190385759 4673.33854540695483593 29.009497869018190385759 352.99786969368898326
30.009497869018190385759 4682.55656978347542463 30.009497869018190385759 351.61814844744793618
31.009497869018190385759 4691.37074417829262529 31.009497869018190385759 350.31217689512101288
32.009497869018190385759 4699.80983565188671491 32.009497869018190385759 349.06925818349685642
33.009497869018190385759 4707.89967159901698324 33.009497869018190385759 347.88925791916028629
34.009497869018190385759 4715.66344915701847640 34.009497869018190385759 346.74882536571169567
35.009497869018190385759 4723.12237432985511987 35.009497869018190385759 345.64846200715675195
36.009497869018190385759 4730.29549063969443523 36.009497869018190385759 344.58867668166368503
37.009497869018190385759 4737.20025958620772144 37.009497869018190385759 343.56325706681178644
38.009497869018190385759 4743.85264841940170299 38.009497869018190385759 342.56839087486423523
39.009497869018190385759 4750.26718570791854290 39.009497869018190385759 341.59344989033621687
40.009497869018190385759 4756.45729334296993329 40.009497869018190385759 340.63136187034911018
41.009497869018190385759 4762.43533080540510127 41.009497869018190385759 339.71839679165714188
42.009497869018190385759 4768.21264337421143864 42.009497869018190385759 338.80483461225156816
43.009497869018190385759 4773.79975859688420314 43.009497869018190385759 337.93127182137192221
44.009497869018218807469 4779.20644246973733971 44.009497869018218807469 337.05140670377483048
46.009497869018190385759 4789.51401711280868767 46.009497869018190385759 335.34383489273449186
48.009497869018190385759 4799.20046822843687551 48.009497869018190385759 333.70075801142473892
50.009497869018190385759 4808.32244469771740114 50.009497869018190385759 332.07414982839134154
52.009497869018190385759 4816.92948892927142879 52.009497869018190385759 330.49361334543317525
54.009497869018190385759 4825.06533165157816256 54.009497869018190385759 328.96679023706906264
56.009497869018190385759 4832.76852019284979178 56.009497869018190385759 327.47059975330353154
58.009497869018218807469 4840.07352153700594499 58.009497869018218807469 325.93234857508218738
60.009497869018190385759 4847.01089024826433160 60.009497869018190385759 324.49429231876746371
62.009497869018190385759 4853.60824448420135013 62.009497869018190385759 323.08194156342443648
64.009497869018190385759 4859.89025212023534550 64.009497869018190385759 321.69384375164167977
66.009497869018190385759 4865.87927661386402178 66.009497869018190385759 320.30636938835334604
68.009497869018190385759 4871.59562625764192489 68.009497869018190385759 318.92886097447347993
70.009497869018190385759 4877.05749896308316238 70.009497869018190385759 317.61801209224216791
72.009497869018218807469 4882.28181451063119312 72.009497869018218807469 316.30928213904707036
74.009497869018190385759 4887.28379567899719405 74.009497869018190385759 315.03921063831819538
76.009497869018190385759 4892.07737056622136151 76.009497869018190385759 313.79566254615178877
78.009497869018190385759 4896.67552294715733296 78.009497869018190385759 312.56928134340535053
80.009497869018190385759 4901.08996065959763655 80.009497869018190385759 311.37733004276719839
82.009497869018218807469 4905.33151048879972222 82.009497869018218807469 310.21597560954342043
84.009497869018190385759 4909.41033420630628825 84.009497869018190385759 309.09414933308289619
86.009497869018190385759 4913.33561334064779658 86.009497869018190385759 307.97663828047541301
88.009497869018190385759 4917.11585592017854651 88.009497869018190385759 306.90424108664365122
91.009497869018218807469 4922.53184756780501630 91.009497869018218807469 305.33326913143741876
94.009497869018190385759 4927.66402649633801047 94.009497869018190385759 303.82424436755900388
97.009497869018190385759 4932.53444833664070757 97.009497869018190385759 302.36573561535499266
99.504748934509109403734 4936.40042491578060435 99.504748934509109403734 301.43020044914879918
nan nan nan nan

