Time Pressure difference Time.1 Pressure.1 difference.1
(hr) (psi) (hr) (psi)
0.000200000000006639311 0.38617351165350439 0.000200000000006639311 0.30784371431666047
0.000399999999999067768 0.77212830951883193 0.000399999999999067768 0.80578964477264792
0.000600000000005707079 1.15789774808154222 0.000600000000005707079 1.17894988326451622
0.000799999999998135536 1.54349780394502800 0.000799999999998135536 1.55884372432887042
0.001007140329434719206 1.94269375923244736 0.001007140329434719206 1.95764225054539920
0.001267914553963578328 2.44501597643394275 0.001267914553963578328 2.46324053849109026
0.001596209851982166583 3.07704305777206111 0.001596209851982166583 3.09907741038853368
0.002009509145210586212 3.87217028155551057 0.002009509145210586212 3.89851872173344649
0.002529822128138903281 4.87233992720604370 0.002529822128138903281 4.90338000882432379
0.003184857364445292660 6.13020108627647975 0.003184857364445292660 6.16601301051956963
0.004009497869020606231 7.71180023680823545 0.004009497869020606231 7.75187823572349988
0.005047658755842121536 9.69992477400837494 0.005047658755842121536 9.74270050732277149
0.006354625877804664924 12.19824520451610184 0.006354625877804664924 12.24031421815918108
0.008000000000009777068 15.33642702827059523 0.008000000000009777068 15.37130945744148569
0.010071403294347192059 19.27640870226289493 0.010071403294347192059 19.29258386089631472
0.012679145539692626699 24.22006421571083479 0.012679145539692626699 24.19787946675090495
0.015962098519750611558 30.41848197817356336 0.015962098519750611558 30.32532578838585735
0.020095091452091651263 38.18308647587946325 0.020095091452091651263 37.96589980917980256
0.025298221281346400247 47.89879047621681707 0.025298221281346400247 47.47252154246606182
0.031848573644282396344 60.03927046394824885 0.031848573644282396344 59.26918918932167912
0.040094978690191851456 75.18427241360080870 0.040094978690191851456 73.85906563742216235
0.050476587558421215363 94.03853038398288788 0.050476587558421215363 91.82968846375651140
0.063546258777947173257 117.45135049427386775 0.063546258777947173257 113.85240879280718218
0.079999999999998294697 146.43509225457415823 0.079999999999998294697 140.67169284513113325
0.100714032943542974863 182.17956647945888449 0.100714032943542974863 173.07799655616202017
0.126791455396897845276 226.05765837649133232 0.126791455396897845276 211.85558450087557958
0.159620985197506115583 279.61519426701465818 0.159620985197506115583 257.69413006638797015
0.200950914520774404082 344.53520303480678422 0.200950914520774404082 311.05081187571209966
0.252982212813464002465 422.56348870267265738 0.252982212813464002465 371.94932860526432705
0.318485736442795541734 515.37950230732258206 0.318485736442795541734 439.70683024539732742
0.400949786901819038576 624.39551541599155371 0.400949786901819038576 512.59505318385322425
0.504765875584169521062 750.47144349409597908 0.504765875584169521062 587.47710938040756901
0.635462587779443310865 893.54818820160699033 0.635462587779443310865 659.52533692615747896
0.799999999999997157829 1052.23644232633387219 0.799999999999997157829 722.21382472944071651
1.007140329435330272645 1223.45395087584529392 1.007140329435330272645 767.84954338706700128
1.267914553968893187630 1402.26965804948304140 1.267914553968893187630 788.86243281287761420
1.596209851975103788391 1582.14670056811382892 1.596209851975103788391 779.80587833084098293
2.009509145207687197399 1755.71433949611991920 2.009509145207687197399 739.52596135324631632
2.529822128134711078928 1916.00321171649943608 2.529822128134711078928 672.49728604841288870
3.184857364427983839050 2057.80713094461680157 3.184857364427983839050 588.34925847637759944
4.009497869018190385759 2178.66067645541988895 4.009497869018190385759 499.33237925400175072
5.009497869018190385759 2276.01461831175538464 5.009497869018190385759 418.95941543275199592
6.009497869018190385759 2343.00501069606798410 6.009497869018190385759 362.58204917019151026
7.009497869018204596614 2392.29854142193880762 7.009497869018204596614 323.36086230990287049
8.009497869018190385759 2430.53153243978294995 8.009497869018190385759 295.75644993984258235
9.009497869018204596614 2461.42448819971014018 9.009497869018204596614 276.41068056695996802
10.009497869018190385759 2487.18932895995703802 10.009497869018190385759 262.60898539545769381
11.009497869018190385759 2509.21275074335244426 11.009497869018190385759 251.41384452498610358
12.009497869018190385759 2528.40332045819286577 12.009497869018190385759 242.87757443207351571
13.009497869018190385759 2545.38200051191188322 13.009497869018190385759 236.23041861095788363
14.009497869018204596614 2560.58821021258245310 14.009497869018204596614 230.95106653885210335
15.009497869018190385759 2574.34276877493130087 15.009497869018190385759 226.67862283407157520
16.009497869018190385759 2586.88642260241476833 16.009497869018190385759 223.16043027385975961
17.009497869018190385759 2598.40429767571686170 17.009497869018190385759 220.28338742665903283
18.009497869018190385759 2609.04176746641087448 18.009497869018190385759 217.76446578065042559
19.009497869018204596614 2618.91470893569612599 19.009497869018204596614 215.68107201885669610
20.009497869018190385759 2628.11746055215144224 20.009497869018190385759 213.77017246463702804
21.009497869018204596614 2636.72796201630762880 21.009497869018204596614 212.08684243841634043
22.009497869018190385759 2644.81084932723751990 22.009497869018190385759 210.58815186805307462
23.009497869018190385759 2652.42083208910025860 23.009497869018190385759 209.26431517568909157
24.009497869018190385759 2659.60457664850491710 24.009497869018190385759 208.03771379459459467
25.009497869018190385759 2666.40191680992847978 25.009497869018190385759 206.91662040389283561
26.009497869018204596614 2672.84768552524337792 26.009497869018204596614 205.90731875917103366
27.009497869018190385759 2678.97187364436786083 27.009497869018190385759 204.94575465274189696
28.009497869018190385759 2684.80112969963556679 28.009497869018190385759 204.04903841228900774
29.009497869018190385759 2690.35866633849536811 29.009497869018190385759 203.21465451348845477
30.009497869018190385759 2695.66532057014001111 30.009497869018190385759 202.42037329977151217
31.009497869018190385759 2700.73948548229236621 31.009497869018190385759 201.66854848552870294
32.009497869018190385759 2705.59772176485785167 32.009497869018190385759 200.95302208082202355
33.009497869018190385759 2710.25489779397548773 33.009497869018190385759 200.27371671773002504
34.009497869018190385759 2714.72436775292362654 34.009497869018190385759 199.61718978869757279
35.009497869018190385759 2719.01833956458131070 35.009497869018190385759 198.98372998923170485
36.009497869018190385759 2723.14777624915404886 36.009497869018190385759 198.37363024850120041
37.009497869018190385759 2727.12273008436795863 37.009497869018190385759 197.78331424193632415
38.009497869018190385759 2730.95239313474257870 38.009497869018190385759 197.21058730265139047
39.009497869018190385759 2734.64512924128348459 39.009497869018190385759 196.64933095423819509
40.009497869018190385759 2738.20866515029547372 40.009497869018190385759 196.09547383106942675
41.009497869018190385759 2741.65011599715580815 41.009497869018190385759 195.56989591976292786
42.009497869018190385759 2744.97601305909938674 42.009497869018190385759 195.04397426809518379
43.009497869018190385759 2748.19241685974475331 43.009497869018190385759 194.54107955969797672
44.009497869018218807469 2751.30494951111404589 44.009497869018218807469 194.03455671284308437
46.009497869018190385759 2757.23883863566152286 46.009497869018190385759 193.05153770499850907
48.009497869018190385759 2762.81515788833030456 48.009497869018190385759 192.10564729193680478
50.009497869018190385759 2768.06651903193733233 50.009497869018190385759 191.16923761832953232
52.009497869018190385759 2773.02144275829004982 52.009497869018190385759 190.25935061077043997
54.009497869018190385759 2777.70510407733536340 54.009497869018190385759 189.38038544665019458
56.009497869018190385759 2782.13969400680161925 56.009497869018190385759 188.51905494482983272
58.009497869018218807469 2786.34505458209832796 58.009497869018218807469 187.63351084223094745
60.009497869018190385759 2790.33877552753665441 60.009497869018190385759 186.80564719095301029
62.009497869018190385759 2794.13675612986298802 62.009497869018190385759 185.99258174370834240
64.009497869018190385759 2797.75319725035842566 64.009497869018190385759 185.19347828878628093
66.009497869018190385759 2801.20097313751011825 66.009497869018190385759 184.39473374217860169
68.009497869018190385759 2804.49177491755062874 68.009497869018190385759 183.60172641706660102
70.009497869018190385759 2807.63607880753170321 70.009497869018190385759 182.84709380992600813
72.009497869018218807469 2810.64362522696364977 72.009497869018218807469 182.09368103290054819
74.009497869018190385759 2813.52317766135820420 74.009497869018190385759 181.36252324588045326
76.009497869018190385759 2816.28275427137305087 76.009497869018190385759 180.64663451788391058
78.009497869018190385759 2818.92982958744505595 78.009497869018190385759 179.94062846568249370
80.009497869018190385759 2821.47114360552541257 80.009497869018190385759 179.25444310154338723
82.009497869018218807469 2823.91292911513983199 82.009497869018218807469 178.58587181492325158
84.009497869018190385759 2826.26103606913875410 84.009497869018190385759 177.94005619174996013
86.009497869018190385759 2828.52075011173792518 86.009497869018190385759 177.29672476692383043
88.009497869018190385759 2830.69696916496650374 88.009497869018190385759 176.67936459578493213
91.009497869018218807469 2833.81486013828953219 91.009497869018218807469 175.77498371834610680
94.009497869018190385759 2836.76936512940574175 94.009497869018190385759 174.90626474757740993
97.009497869018190385759 2839.57318117642898869 97.009497869018190385759 174.06662695474531688
99.504748934509109403734 2841.79875578278233661 99.504748934509109403734 173.52805584169360031
nan nan nan nan

