Time Pressure difference Time.1 Pressure.1 difference.1
(hr) (psi) (hr) (psi)
0.000200000000006639311 0.52100133253252967 0.000200000000006639311 0.41532363181514970
0.000399999999999067768 1.04170758999738955 0.000399999999999067768 1.08712137419758115
0.000600000000005707079 1.56216377219621871 0.000600000000005707079 1.59056600630083445
0.000799999999998135536 2.08239143377066283 0.000799999999998135536 2.10309519704713965
0.001007140329434719206 2.62096183896446577 0.001007140329434719206 2.64112941560650860
0.001267914553963578328 3.29866379579234570 0.001267914553963578328 3.32325124374013470
0.001596209851982166583 4.15135550466661574 0.001596209851982166583 4.18108288556728880
0.002009509145210586212 5.22409180227101277 0.002009509145210586212 5.25963948233865874
0.002529822128138903281 6.57345860868746534 0.002529822128138903281 6.61533596018109193
0.003184857364445292660 8.27048681036438893 0.003184857364445292660 8.31880203574407240
0.004009497869020606231 10.40428221603869652 0.004009497869020606231 10.45835296457524066
0.005047658755842121536 13.08653644079578093 0.005047658755842121536 13.14424680513804944
0.006354625877804664924 16.45711529747215707 0.006354625877804664924 16.51387219949924301
0.008000000000009777068 20.69095543038231000 0.008000000000009777068 20.73801663870338885
0.010071403294347192059 26.00653415434605975 0.010071403294347192059 26.02835667439890699
0.012679145539692626699 32.67620732550643226 0.012679145539692626699 32.64627703919411061
0.015962098519750611558 41.03872784124278184 0.015962098519750611558 40.91304729208954427
0.020095091452091651263 51.51425028857875077 0.020095091452091651263 51.22123551841930578
0.025298221281346400247 64.62207508213734286 0.025298221281346400247 64.04697949479258057
0.031848573644282396344 81.00125713455086895 0.031848573644282396344 79.96231127697278396
0.040094978690191851456 101.43395373041833807 0.040094978690191851456 99.64606700221180802
0.050476587558421215363 126.87094831977002229 0.050476587558421215363 123.89091590153357458
0.063546258777947173257 158.45807200305051765 0.063546258777947173257 153.60260324202002380
0.079999999999998294697 197.56113739517979866 0.079999999999998294697 189.78551664019843770
0.100714032943542974863 245.78536339685615530 0.100714032943542974863 233.50609018137376438
0.126791455396897845276 304.98296151655944186 0.126791455396897845276 285.82240495161232730
0.159620985197506115583 377.23946467920512760 0.159620985197506115583 347.66492547749760433
0.200950914520774404082 464.82551099092461300 0.200950914520774404082 419.65044878059433131
0.252982212813464002465 570.09643087903680225 0.252982212813464002465 501.81094764417127863
0.318485736442795541734 695.31803544048261756 0.318485736442795541734 593.22516321900582170
0.400949786901819038576 842.39567381554036274 0.400949786901819038576 691.56142951097433524
0.504765875584169521062 1012.48949057608649582 0.504765875584169521062 792.58765187960159437
0.635462587779443310865 1205.51975390992674875 0.635462587779443310865 889.79064852537612751
0.799999999999997157829 1419.61209675923487339 0.799999999999997157829 974.36606525997819972
1.007140329435330272645 1650.60813200060169947 1.007140329435330272645 1035.93494431099998110
1.267914553968893187630 1891.85518521331118791 1.267914553968893187630 1064.28423047599426354
1.596209851975103788391 2134.53412619749860824 1.596209851975103788391 1052.06568929979835048
2.009509145207687197399 2368.70081147536893695 2.009509145207687197399 997.72252544640559790
2.529822128134711078928 2584.95260891062207520 2.529822128134711078928 907.29159712566035978
3.184857364427983839050 2776.26565511062517544 3.184857364427983839050 793.76430130649225703
4.009497869018190385759 2939.31375745925197407 4.009497869018190385759 673.66825304526969376
5.009497869018190385759 3070.65765315336011554 5.009497869018190385759 565.23403892435931084
6.009497869018190385759 3161.03693253391929829 6.009497869018190385759 489.17319564771531759
7.009497869018204596614 3227.54070459080458022 7.009497869018204596614 436.25840475430862853
8.009497869018190385759 3279.12228298988020470 8.009497869018190385759 399.01624496194273206
9.009497869018204596614 3320.80114140736759509 9.009497869018204596614 372.91613369594170990
10.009497869018190385759 3355.56146536407959502 10.009497869018190385759 354.29574322749255089
11.009497869018190385759 3385.27409906322964162 11.009497869018190385759 339.19195403586491011
12.009497869018190385759 3411.16482458368273001 12.009497869018190385759 327.67534826396126846
13.009497869018190385759 3434.07140586305376928 13.009497869018190385759 318.70741821219752410
14.009497869018204596614 3454.58668015749253755 14.009497869018204596614 311.58484408043409530
15.009497869018190385759 3473.14347683859250537 15.009497869018190385759 305.82072822010519531
16.009497869018190385759 3490.06659601101682711 16.009497869018190385759 301.07420118844009949
17.009497869018190385759 3505.60579815732535280 17.009497869018190385759 297.19267355407015430
18.009497869018190385759 3519.95721214218428941 18.009497869018190385759 293.79430081613617176
19.009497869018204596614 3533.27717196927960686 19.009497869018204596614 290.98351526681955193
20.009497869018190385759 3545.69295324492850341 20.009497869018190385759 288.40544819582493119
21.009497869018204596614 3557.30970737544930671 21.009497869018204596614 286.13440380700143351
22.009497869018190385759 3568.21463723890246911 22.009497869018190385759 284.11246351164055568
23.009497869018190385759 3578.48155363744990609 23.009497869018190385759 282.32642521547711567
24.009497869018190385759 3588.17341590940532114 24.009497869018190385759 280.67157076598323329
25.009497869018190385759 3597.34396535132646022 25.009497869018190385759 279.15906114835547669
26.009497869018204596614 3606.04019641983268230 26.009497869018204596614 277.79737401560578292
27.009497869018190385759 3614.30257090813438481 27.009497869018190385759 276.50009140650092831
28.009497869018190385759 3622.16704136200860376 28.009497869018190385759 275.29029751313129282
29.009497869018190385759 3629.66492484460786727 29.009497869018190385759 274.16459854621501790
30.009497869018190385759 3636.82433335540417829 30.009497869018190385759 273.09300363288139124
31.009497869018190385759 3643.67008170671351763 31.009497869018190385759 272.07868825849351424
32.009497869018190385759 3650.22451255345049503 32.009497869018190385759 271.11334444524692344
33.009497869018190385759 3656.50768538583724876 33.009497869018190385759 270.19686781314436530
34.009497869018190385759 3662.53761683907350744 34.009497869018190385759 269.31112243044111665
35.009497869018190385759 3668.33077708497421554 35.009497869018190385759 268.45649778719615597
36.009497869018190385759 3673.90195674993674402 36.009497869018190385759 267.63338908526242221
37.009497869018190385759 3679.26471774313449714 37.009497869018190385759 266.83697136950894446
38.009497869018190385759 3684.43146142747536942 38.009497869018190385759 266.06428373159434386
39.009497869018190385759 3689.41347177811076108 39.009497869018190385759 265.30707150291618746
40.009497869018190385759 3694.22117324156215545 40.009497869018190385759 264.55984184967553574
41.009497869018190385759 3698.86416511685274600 41.009497869018190385759 263.85076475381811179
42.009497869018190385759 3703.35125899783633940 42.009497869018190385759 263.14122390480082458
43.009497869018190385759 3707.69063136681097603 43.009497869018190385759 262.46274957838562614
44.009497869018218807469 3711.88986722835670662 44.009497869018218807469 261.77938039275812798
46.009497869018190385759 3719.89550212483618452 46.009497869018190385759 260.45315216234712352
48.009497869018190385759 3727.41872594417009168 48.009497869018190385759 259.17701552748366112
50.009497869018190385759 3734.50353645257018798 50.009497869018190385759 257.91366971783247664
52.009497869018190385759 3741.18841199717599011 52.009497869018190385759 256.68610664297909807
54.009497869018190385759 3747.50731713881850737 54.009497869018190385759 255.50026140000650798
56.009497869018190385759 3753.49019062124534685 56.009497869018190385759 254.33820774884370053
58.009497869018218807469 3759.16380208705459154 58.009497869018218807469 253.14348661042362210
60.009497869018190385759 3764.55188250051287469 60.009497869018190385759 252.02658435675985515
62.009497869018190385759 3769.67588219244407810 62.009497869018190385759 250.92964692146858852
64.009497869018190385759 3774.55496008345789960 64.009497869018190385759 249.85154613961250902
66.009497869018190385759 3779.20648531051983809 66.009497869018190385759 248.77392957457718126
68.009497869018190385759 3783.64623081548870687 68.009497869018190385759 247.70405331268040072
70.009497869018190385759 3787.88833046016134176 70.009497869018190385759 246.68594983839153656
72.009497869018218807469 3791.94592541396423258 72.009497869018218807469 245.66949208318044384
74.009497869018190385759 3795.83083882760820416 74.009497869018190385759 244.68305937914044534
76.009497869018190385759 3799.55388830577521730 76.009497869018190385759 243.71722674180028889
78.009497869018190385759 3803.12515802099278517 78.009497869018190385759 242.76472719723543037
80.009497869018190385759 3806.55374115745462404 80.009497869018190385759 241.83896849475462432
82.009497869018218807469 3809.84804660792588038 82.009497869018218807469 240.93697361237491350
84.009497869018190385759 3813.01596676569215560 84.009497869018190385759 240.06567925869714486
86.009497869018190385759 3816.06463269385312742 86.009497869018190385759 239.19773643123775742
88.009497869018190385759 3819.00065236480395470 88.009497869018190385759 238.36483240724433585
91.009497869018218807469 3823.20711734174392404 91.009497869018218807469 237.14469786138937479
94.009497869018190385759 3827.19315209268961553 94.009497869018190385759 235.97267614651605072
97.009497869018190385759 3830.97588667337140578 97.009497869018190385759 234.83988895187621893
99.504748934509109403734 3833.97849379314993712 99.504748934509109403734 234.11328223469871546
nan nan nan nan

