Time Pressure difference Time.1 Pressure.1 difference.1
(hr) (psi) (hr) (psi)
0.000200000000006639311 0.19225448532749898 0.000200000000006639311 0.15325840087747536
0.000399999999999067768 0.38440008512683221 0.000399999999999067768 0.40115820677258984
0.000600000000005707079 0.57645340475611262 0.000600000000005707079 0.58693410136660173
0.000799999999998135536 0.76842239808470147 0.000799999999998135536 0.77606228517234699
0.001007140329434719206 0.96716003961787800 0.001007140329434719206 0.97460206869824839
0.001267914553963578328 1.21723855723327756 0.001267914553963578328 1.22631156118845230
0.001596209851982166583 1.53188997057186649 0.001596209851982166583 1.54285965905118805
0.002009509145210586212 1.92773994620543743 0.002009509145210586212 1.94085738086298742
0.002529822128138903281 2.42566923100128484 0.002529822128138903281 2.44112237508279906
0.003184857364445292660 3.05188890286609249 0.003184857364445292660 3.06971768411642332
0.004009497869020606231 3.83927985927306592 0.004009497869020606231 3.85923248373303585
0.005047658755842121536 4.82905737671537683 0.005047658755842121536 4.85035305429215580
0.006354625877804664924 6.07283328069659412 0.006354625877804664924 6.09377712154045437
0.008000000000009777068 7.63516086967781860 0.008000000000009777068 7.65252690661418811
0.010071403294347192059 9.59666036685932866 0.010071403294347192059 9.60471308592036266
0.012679145539692626699 12.05783369359741997 0.012679145539692626699 12.04678913107641947
0.015962098519750611558 15.14368391585795948 0.015962098519750611558 15.09730658861451147
0.020095091452091651263 19.00925210329344139 0.020095091452091651263 18.90112684465632853
0.025298221281346400247 23.84616508622000808 0.025298221281346400247 23.63394930239151392
0.031848573644282396344 29.89024025252595962 0.031848573644282396344 29.50685927313212886
0.040094978690191851456 37.43010113694351304 0.040094978690191851456 36.77035379794077841
0.050476587558421215363 46.81659594547423353 0.050476587558421215363 45.71693542053395731
0.063546258777947173257 58.47254733658892434 0.063546258777947173257 56.68083282572943915
0.079999999999998294697 72.90195325604878462 0.079999999999998294697 70.03267467074415720
0.100714032943542974863 90.69715486369612734 0.100714032943542974863 86.16598535446858875
0.126791455396897845276 112.54163595898599226 0.126791455396897845276 105.47120693901349853
0.159620985197506115583 139.20497818034567672 0.159620985197506115583 128.29168975287851140
0.200950914520774404082 171.52506875224216287 0.200950914520774404082 154.85503780881356306
0.252982212813464002465 210.37104717740814408 0.252982212813464002465 185.17304937029325629
0.318485736442795541734 256.57901946765412049 0.318485736442795541734 218.90577109199736583
0.400949786901819038576 310.85207771787509046 0.400949786901819038576 255.19279587385793207
0.504765875584169521062 373.61832639469002970 0.504765875584169521062 292.47244023033221083
0.635462587779443310865 444.84834369519660413 0.635462587779443310865 328.34127765073782257
0.799999999999997157829 523.85047020987747146 0.799999999999997157829 359.55041705280348197
1.007140329435330272645 609.09022123344880129 1.007140329435330272645 382.26992353968205407
1.267914553968893187630 698.11269614101411207 1.267914553968893187630 392.73108185296274542
1.596209851975103788391 787.66355136041886453 1.596209851975103788391 388.22232304832817817
2.009509145207687197399 874.07330263707694940 2.009509145207687197399 368.16917472543082113
2.529822128134711078928 953.87228859161928085 2.529822128134711078928 334.79929542496415706
3.184857364427983839050 1024.46863631078986145 3.184857364427983839050 292.90663514664487366
4.009497869018190385759 1084.63494883879729969 4.009497869018190385759 248.59004225791900922
5.009497869018190385759 1133.10210523710247799 5.009497869018190385759 208.57677794173645225
6.009497869018190385759 1166.45292558360301882 6.009497869018190385759 180.50959775498759541
7.009497869018204596614 1190.99345488893914080 7.009497869018204596614 160.98353274480078312
8.009497869018190385759 1210.02755171032322323 8.009497869018190385759 147.24081882780953379
9.009497869018204596614 1225.40744994425222103 9.009497869018204596614 137.60962760984429565
10.009497869018190385759 1238.23434265032346957 10.009497869018190385759 130.73852505679036540
11.009497869018190385759 1249.19858927093628154 11.009497869018190385759 125.16508208032715288
12.009497869018190385759 1258.75251514190222224 12.009497869018190385759 120.91534416769178506
13.009497869018190385759 1267.20526318588713366 13.009497869018190385759 117.60609202398980244
14.009497869018204596614 1274.77559603255713228 14.009497869018204596614 114.97779390188543402
15.009497869018190385759 1281.62323186855405766 15.009497869018190385759 112.85077990230719536
16.009497869018190385759 1287.86802504559886984 16.009497869018190385759 111.09926593375345760
17.009497869018190385759 1293.60213957562632459 17.009497869018190385759 109.66694503353068058
18.009497869018190385759 1298.89794888952792462 18.009497869018190385759 108.41291292097037058
19.009497869018204596614 1303.81314173307305282 19.009497869018204596614 107.37570611283597088
20.009497869018190385759 1308.39468402488569154 20.009497869018190385759 106.42437465373092209
21.009497869018204596614 1312.68137764173934556 21.009497869018204596614 105.58633750705642740
22.009497869018190385759 1316.70540128144784831 22.009497869018190385759 104.84022215844883874
23.009497869018190385759 1320.49399183746140807 23.009497869018190385759 104.18115690858660116
24.009497869018190385759 1324.07038190906177988 24.009497869018190385759 103.57049975549861642
25.009497869018190385759 1327.45440254977052064 25.009497869018190385759 103.01236920969664368
26.009497869018204596614 1330.66339516450716474 26.009497869018204596614 102.50989360639765380
27.009497869018190385759 1333.71229054277796422 27.009497869018190385759 102.03118388961935636
28.009497869018190385759 1336.61435551856857273 28.009497869018190385759 101.58475834749734190
29.009497869018190385759 1339.38114638834576908 29.009497869018190385759 101.16936463925824796
30.009497869018190385759 1342.02303674935842537 30.009497869018190385759 100.77393584536039839
31.009497869018190385759 1344.54918350519301384 31.009497869018190385759 100.39964375033864030
32.009497869018190385759 1346.96783130965968667 32.009497869018190385759 100.04342263075406549
33.009497869018190385759 1349.28638230691421995 33.009497869018190385759 99.70523396938713745
34.009497869018190385759 1351.51148480802862650 34.009497869018190385759 99.37838543359728760
35.009497869018190385759 1353.64921646426364532 35.009497869018190385759 99.06302074894938414
36.009497869018190385759 1355.70503515852283272 36.009497869018190385759 98.75928574871502974
37.009497869018190385759 1357.68394536527807759 37.009497869018190385759 98.46539997820536883
38.009497869018190385759 1359.59052330630493088 38.009497869018190385759 98.18027083386309073
39.009497869018190385759 1361.42893287658716872 39.009497869018190385759 97.90085226385565420
40.009497869018190385759 1363.20302079680641327 40.009497869018190385759 97.62511735986430494
41.009497869018190385759 1364.91632930030823445 41.009497869018190385759 97.36346111522679792
42.009497869018190385759 1366.57210994968090745 42.009497869018190385759 97.10163374122841162
43.009497869018190385759 1368.17337994526087641 43.009497869018190385759 96.85127021183240004
44.009497869018218807469 1369.72293822643814565 44.009497869018218807469 96.59910043247144529
46.009497869018190385759 1372.67709423456403783 46.009497869018190385759 96.10970950399710944
48.009497869018190385759 1375.45323593147486463 48.009497869018190385759 95.63880285439094564
50.009497869018190385759 1378.06759891460660583 50.009497869018190385759 95.17261614188387853
52.009497869018190385759 1380.53438206285568413 52.009497869018190385759 94.71963360148271249
54.009497869018190385759 1382.86611862470795131 54.009497869018190385759 94.28204534089697120
56.009497869018190385759 1385.07385628355882545 56.009497869018190385759 93.85323640572346449
58.009497869018218807469 1387.16747329410486600 58.009497869018218807469 93.41237285464515594
60.009497869018190385759 1389.15572660961424845 60.009497869018190385759 93.00022521790978658
62.009497869018190385759 1391.04653160775501419 62.009497869018190385759 92.59544479050998689
64.009497869018190385759 1392.84695811386382047 64.009497869018190385759 92.19761526877076108
66.009497869018190385759 1394.56341550595857370 66.009497869018190385759 91.79996442767944131
68.009497869018190385759 1396.20172415076331163 68.009497869018190385759 91.40516983263444217
70.009497869018190385759 1397.76709957874982138 70.009497869018190385759 91.02947989244161420
72.009497869018218807469 1399.26439100738934940 72.009497869018218807469 90.65439723836212238
74.009497869018190385759 1400.69796129261590067 74.009497869018190385759 90.29039411594479247
76.009497869018190385759 1402.07180223423961252 76.009497869018190385759 89.93399261558444380
78.009497869018190385759 1403.38963498857719969 78.009497869018190385759 89.58251115425140654
80.009497869018190385759 1404.65481502775060108 80.009497869018190385759 89.24089731994939712
82.009497869018218807469 1405.87044531378728607 82.009497869018218807469 88.90805256303291060
84.009497869018190385759 1407.03943821545499304 84.009497869018190385759 88.58653659546172321
86.009497869018190385759 1408.16442516338656787 86.009497869018190385759 88.26625737318836684
88.009497869018190385759 1409.24784456273096112 88.009497869018190385759 87.95890780522914554
91.009497869018218807469 1410.80007045677757560 91.009497869018218807469 87.50866646322835152
94.009497869018190385759 1412.27095548468264496 94.009497869018190385759 87.07617921700511943
97.009497869018190385759 1413.66682080119630882 97.009497869018190385759 86.65816988479777194
99.504748934509109403734 1414.77481160737625032 99.504748934509109403734 86.39004504187762734
nan nan nan nan

