Time Pressure difference Time.1 Pressure.1 difference.1
(hr) (psi) (hr) (psi)
0.000200000000006639311 0.04743941845743480 0.000200000000006639311 0.03781700800872768
0.000399999999999067768 0.09485196905727031 0.000399999999999067768 0.09898708998284683
0.000600000000005707079 0.14224174922553429 0.000600000000005707079 0.14482789514240824
0.000799999999998135536 0.18961072160531595 0.000799999999998135536 0.19149588854902069
0.001007140329434719206 0.23864987990571013 0.001007140329434719206 0.24048622474372361
0.001267914553963578328 0.30035756607054903 0.001267914553963578328 0.30259635925429346
0.001596209851982166583 0.37799882390734368 0.001596209851982166583 0.38070563015548792
0.002009509145210586212 0.47567609062212096 0.002009509145210586212 0.47891286021294494
0.002529822128138903281 0.59854175829901834 0.002529822128138903281 0.60235487177367764
0.003184857364445292660 0.75306349551241236 0.003184857364445292660 0.75746280517158504
0.004009497869020606231 0.94735477046997718 0.004009497869020606231 0.95227814533672317
0.005047658755842121536 1.19158558646223578 0.005047658755842121536 1.19684036404611627
0.006354625877804664924 1.49849132900305571 0.006354625877804664924 1.50365928973076146
0.008000000000009777068 1.88400073407634472 0.008000000000009777068 1.88828586007363097
0.010071403294347192059 2.36800710351074306 0.010071403294347192059 2.36999413808424553
0.012679145539692626699 2.97530961270585737 0.012679145539692626699 2.97258433104483100
0.015962098519750611558 3.73675317404287277 0.015962098519750611558 3.72530941796981452
0.020095091452091651263 4.69059467483864090 0.020095091452091651263 4.66391441621389813
0.025298221281346400247 5.88411865763870345 0.025298221281346400247 5.83175372396673719
0.031848573644282396344 7.37551382854536630 0.031848573644282396344 7.28091332713649919
0.040094978690191851456 9.23599898184320445 0.040094978690191851456 9.07320418390746575
0.050476587558421215363 11.55214705148065590 0.050476587558421215363 11.28080224662526021
0.063546258777947173257 14.42829090123622926 0.063546258777947173257 13.98617952842674406
0.079999999999998294697 17.98879366058346463 0.079999999999998294697 17.28078985381998933
0.100714032943542974863 22.37981743389904565 0.100714032943542974863 21.26173664590783474
0.126791455396897845276 27.77001406780173554 0.126791455396897845276 26.02536275118514908
0.159620985197506115583 34.34928033021516569 0.159620985197506115583 31.65639097798300838
0.200950914520774404082 42.32436761418962590 0.200950914520774404082 38.21098335542153279
0.252982212813464002465 51.90973891390590467 0.252982212813464002465 45.69205114331911233
0.318485736442795541734 63.31170610240815222 0.318485736442795541734 54.01570974997337515
0.400949786901819038576 76.70375943687827203 0.400949786901819038576 62.96965092991300139
0.504765875584169521062 92.19153508440402334 0.504765875584169521062 72.16852421267937245
0.635462587779443310865 109.76777311959396854 0.635462587779443310865 81.01927630342881059
0.799999999999997157829 129.26180433750224097 0.799999999999997157829 88.72023277926318485
1.007140329435330272645 150.29498965500684449 1.007140329435330272645 94.32634476953194280
1.267914553968893187630 172.26157437245805681 1.267914553968893187630 96.90766954813366851
1.596209851975103788391 194.35853864737606500 1.596209851975103788391 95.79511867426279537
2.009509145207687197399 215.68042532603197969 2.009509145207687197399 90.84693921796345251
2.529822128134711078928 235.37108419793204916 2.529822128134711078928 82.61281315680932380
3.184857364427983839050 252.79096220655850402 3.184857364427983839050 72.27566321800327387
4.009497869018190385759 267.63719516801495502 4.009497869018190385759 61.34040003766833138
5.009497869018190385759 279.59662337019415190 5.009497869018190385759 51.46699715445444667
6.009497869018190385759 287.82604657257735425 6.009497869018190385759 44.54132931616577196
7.009497869018204596614 293.88150185571225848 7.009497869018204596614 39.72320937858720669
8.009497869018190385759 298.57822704540444647 8.009497869018190385759 36.33215010036858672
9.009497869018204596614 302.37326686936097531 9.009497869018204596614 33.95562239723430764
10.009497869018190385759 305.53834429033958031 10.009497869018190385759 32.26015553349373022
11.009497869018190385759 308.24380774217905810 11.009497869018190385759 30.88489038345734983
12.009497869018190385759 310.60126997007978389 12.009497869018190385759 29.83625375566420601
13.009497869018190385759 312.68701299392023429 13.009497869018190385759 29.01968504488060319
14.009497869018204596614 314.55501720283876921 14.009497869018204596614 28.37114394981588461
15.009497869018190385759 316.24469357795493352 15.009497869018190385759 27.84629633953034755
16.009497869018190385759 317.78561656969327487 16.009497869018190385759 27.41410458105604775
17.009497869018190385759 319.20052794723250145 17.009497869018190385759 27.06067474853354682
18.009497869018190385759 320.50728608962378985 18.009497869018190385759 26.75123825322645388
19.009497869018204596614 321.72012588218683504 19.009497869018204596614 26.49530410576472050
20.009497869018190385759 322.85063631782895754 20.009497869018190385759 26.26055997949204723
21.009497869018204596614 323.90839188562404161 21.009497869018204596614 26.05377159265028553
22.009497869018190385759 324.90133278373389203 22.009497869018190385759 25.86966520792893220
23.009497869018190385759 325.83617980404898162 23.009497869018190385759 25.70703871770318472
24.009497869018190385759 326.71866566587237912 24.009497869018190385759 25.55635708252563276
25.009497869018190385759 327.55368374604728388 25.009497869018190385759 25.41863655823683743
26.009497869018204596614 328.34551309254067064 26.009497869018204596614 25.29464907170850907
27.009497869018190385759 329.09783792614001641 27.009497869018190385759 25.17652589484113790
28.009497869018190385759 329.81393188120529203 28.009497869018190385759 25.06636894288895334
29.009497869018190385759 330.49664651140994920 29.009497869018190385759 24.96386919670008808
30.009497869018190385759 331.14854153555597804 30.009497869018190385759 24.86629585794607067
31.009497869018190385759 331.77187644933337651 31.009497869018190385759 24.77393806826538025
32.009497869018190385759 332.36868564783816282 32.009497869018190385759 24.68603935044580666
33.009497869018190385759 332.94079563417369627 33.009497869018190385759 24.60259020023838161
34.009497869018190385759 333.48984690068243708 34.009497869018190385759 24.52193926283569425
35.009497869018190385759 334.01733912754554012 35.009497869018190385759 24.44412200298751259
36.009497869018190385759 334.52461906509006440 36.009497869018190385759 24.36917440552708669
37.009497869018190385759 335.01292158364003626 37.009497869018190385759 24.29665713747924727
38.009497869018190385759 335.48337588077652072 38.009497869018190385759 24.22630059536881220
39.009497869018190385759 335.93700941110591884 39.009497869018190385759 24.15735315601633104
40.009497869018190385759 336.37477136544572431 40.009497869018190385759 24.08931467321327347
41.009497869018190385759 336.79753580137474955 41.009497869018190385759 24.02475014531570352
42.009497869018190385759 337.20610505251863742 42.009497869018190385759 23.96014339069272481
43.009497869018190385759 337.60122362285659392 43.009497869018190385759 23.89836537694565521
44.009497869018218807469 337.98358215977049213 44.009497869018218807469 23.83614166515529220
46.009497869018190385759 338.71252974619113729 46.009497869018190385759 23.71538286462266143
48.009497869018190385759 339.39755172335100042 48.009497869018190385759 23.59918511991465095
50.009497869018190385759 340.04265427763021989 50.009497869018190385759 23.48415203501030746
52.009497869018190385759 340.65134102849685860 52.009497869018190385759 23.37237712244378329
54.009497869018190385759 341.22670459570713319 54.009497869018190385759 23.26440079840314823
56.009497869018190385759 341.77147103100799086 56.009497869018190385759 23.15859080141228432
58.009497869018218807469 342.28807782581810670 58.009497869018218807469 23.04980628880854354
60.009497869018190385759 342.77868578678788936 60.009497869018190385759 22.94810752130241838
62.009497869018190385759 343.24524805905645053 62.009497869018190385759 22.84822663661934783
64.009497869018190385759 343.68950914497941085 64.009497869018190385759 22.75006091047590218
66.009497869018190385759 344.11305057939233620 66.009497869018190385759 22.65193927436245858
68.009497869018190385759 344.51730855668188269 68.009497869018190385759 22.55452242623447390
70.009497869018190385759 344.90357002592526214 70.009497869018190385759 22.46181971371936115
72.009497869018218807469 345.27303154727786705 72.009497869018218807469 22.36926685102442036
74.009497869018190385759 345.62676966960651725 74.009497869018190385759 22.27944789873962250
76.009497869018190385759 345.96576938247471844 76.009497869018190385759 22.19150467137798088
78.009497869018190385759 346.29094889328530371 78.009497869018190385759 22.10477547962047851
80.009497869018190385759 346.60313617567874189 80.009497869018190385759 22.02048115687063046
82.009497869018218807469 346.90309689560984907 82.009497869018218807469 21.93835063243669126
84.009497869018190385759 347.19154968952784657 84.009497869018190385759 21.85901552355549171
86.009497869018190385759 347.46914387148501646 86.009497869018190385759 21.77998558559193754
88.009497869018190385759 347.73648112586869274 88.009497869018190385759 21.70414608180978888
91.009497869018218807469 348.11949790491917156 91.009497869018218807469 21.59304756884855436
94.009497869018190385759 348.48244356115537812 94.009497869018190385759 21.48632993666360136
97.009497869018190385759 348.82687786003543806 97.009497869018190385759 21.38318477676828167
99.504748934509109403734 349.10027818883315831 99.504748934509109403734 21.31702410124253078
nan nan nan nan

