Time Pressure difference Time.1 Pressure.1 difference.1
(hr) (psi) (hr) (psi)
0.000200000000006639311 0.03828444296564914 0.000200000000006639311 0.03051898891932410
0.000399999999999067768 0.07654720309884971 0.000399999999999067768 0.07988431823177113
0.000600000000005707079 0.11479158709429083 0.000600000000005707079 0.11687865222018910
0.000799999999998135536 0.15301917883937780 0.000799999999998135536 0.15454054163605180
0.001007140329434719206 0.19259463992390644 0.001007140329434719206 0.19407660242475941
0.001267914553963578328 0.24239382524991676 0.001267914553963578328 0.24420057062627190
0.001596209851982166583 0.30505168245154052 0.001596209851982166583 0.30723612258162186
0.002009509145210586212 0.38387895032662395 0.002009509145210586212 0.38649108017185035
0.002529822128138903281 0.48303369967990950 0.002529822128138903281 0.48611094915068731
0.003184857364445292660 0.60773545251878891 0.003184857364445292660 0.61128577259461248
0.004009497869020606231 0.76453192002840253 0.004009497869020606231 0.76850516992086426
0.005047658755842121536 0.96163047328531304 0.005047658755842121536 0.96587117098458519
0.006354625877804664924 1.20930879182702755 0.006354625877804664924 1.21347942680026377
0.008000000000009777068 1.52042164504406752 0.008000000000009777068 1.52387981690152685
0.010071403294347192059 1.91102327651744197 0.010071403294347192059 1.91262684827851381
0.012679145539692626699 2.40112705586788477 0.012679145539692626699 2.39892770575547765
0.015962098519750611558 3.01562536852582763 0.015962098519750611558 3.00639005660721859
0.020095091452091651263 3.78539219372942926 0.020095091452091651263 3.76386075694454991
0.025298221281346400247 4.74858698686632241 0.025298221281346400247 4.70632756670999797
0.031848573644282396344 5.95216905461555967 0.031848573644282396344 5.87582479032068328
0.040094978690191851456 7.45361321341732275 0.040094978690191851456 7.32223495543409530
0.050476587558421215363 9.32278533979140533 0.050476587558421215363 9.10380532183793179
0.063546258777947173257 11.64388388520818296 0.063546258777947173257 11.28709225101105673
0.079999999999998294697 14.51727207696209376 0.079999999999998294697 13.94590058378455133
0.100714032943542974863 18.06090529753256391 0.100714032943542974863 17.15859448617123562
0.126791455396897845276 22.41088854594526225 0.126791455396897845276 21.00292432551783861
0.159620985197506115583 27.72047184543679776 0.159620985197506115583 25.54726289451260257
0.200950914520774404082 34.15650719741618957 0.200950914520774404082 30.83693393595421384
0.252982212813464002465 41.89207000069599474 0.252982212813464002465 36.87428688759085560
0.318485736442795541734 51.09365755632938999 0.318485736442795541734 43.59162541225921927
0.400949786901819038576 61.90127954555088508 0.400949786901819038576 50.81761303115785466
0.504765875584169521062 74.40018620846642250 0.504765875584169521062 58.24126515409212601
0.635462587779443310865 88.58451865791793978 0.635462587779443310865 65.38397736767940671
0.799999999999997157829 104.31654385131759000 0.799999999999997157829 71.59878434817731829
1.007140329435330272645 121.29069340579499681 1.007140329435330272645 76.12301507716611582
1.267914553968893187630 139.01811265145735774 1.267914553968893187630 78.20618945989734527
1.596209851975103788391 156.85075048735612313 1.596209851975103788391 77.30834138624716445
2.009509145207687197399 174.05788710521878215 2.009509145207687197399 73.31507375484770250
2.529822128134711078928 189.94859426499778010 2.529822128134711078928 66.66998956514437680
3.184857364427983839050 204.00674142985423032 3.184857364427983839050 58.32772821102019378
4.009497869018190385759 215.98791188997697077 4.009497869018190385759 49.50277897776742009
5.009497869018190385759 225.63938026366542999 5.009497869018190385759 41.53476963341937989
6.009497869018190385759 232.28066916383431817 6.009497869018190385759 35.94563418497588714
7.009497869018204596614 237.16752781338183809 7.009497869018204596614 32.05732686693002620
8.009497869018190385759 240.95786744015094882 8.009497869018190385759 29.32068253713956096
9.009497869018204596614 244.02053115772989145 9.009497869018204596614 27.40278298724172146
10.009497869018190385759 246.57480416413369539 10.009497869018190385759 26.03451148317037678
11.009497869018190385759 248.75816063403925682 11.009497869018190385759 24.92464837963224866
12.009497869018190385759 250.66067401094156253 12.009497869018190385759 24.07838022386935606
13.009497869018190385759 252.34390522316368788 13.009497869018190385759 23.41939494850013403
14.009497869018204596614 253.85141739176458486 14.009497869018204596614 22.89601090686895901
15.009497869018190385759 255.21501586992854982 15.009497869018190385759 22.47244967751571565
16.009497869018190385759 256.45856775799802563 16.009497869018190385759 22.12366334611540708
17.009497869018190385759 257.60042606267887777 17.009497869018190385759 21.83843927074637392
18.009497869018190385759 258.65500280917007103 18.009497869018190385759 21.58871859032310425
19.009497869018204596614 259.63378579965956305 19.009497869018204596614 21.38217524324872443
20.009497869018190385759 260.54612755473914376 20.009497869018190385759 21.19273261502866745
21.009497869018204596614 261.39975485506499808 21.009497869018204596614 21.02585075898093336
22.009497869018190385759 262.20107557985539870 22.009497869018190385759 20.87727367657422661
23.009497869018190385759 262.95551352607458284 23.009497869018190385759 20.74603124586572989
24.009497869018190385759 263.66769509877423161 24.009497869018190385759 20.62442852273998284
25.009497869018190385759 264.34156933891534891 25.009497869018190385759 20.51328564348937533
26.009497869018204596614 264.98058951327845989 26.009497869018204596614 20.41322556664195531
27.009497869018190385759 265.58772885267438824 27.009497869018190385759 20.31789809057355001
28.009497869018190385759 266.16562923746386105 28.009497869018190385759 20.22899949777003314
29.009497869018190385759 266.71659192148877082 29.009497869018190385759 20.14628040435445655
30.009497869018190385759 267.24268264272939177 30.009497869018190385759 20.06753700816700103
31.009497869018190385759 267.74572485384800302 31.009497869018190385759 19.99300265158258938
32.009497869018190385759 268.22736034737812361 32.009497869018190385759 19.92206684421942242
33.009497869018190385759 268.68906314336823016 33.009497869018190385759 19.85472191598185532
34.009497869018190385759 269.13215714791914479 34.009497869018190385759 19.78963519456915776
35.009497869018190385759 269.55785262924734980 35.009497869018190385759 19.72683530065658886
36.009497869018190385759 269.96723643849372820 36.009497869018190385759 19.66635127463589683
37.009497869018190385759 270.36130513767443517 37.009497869018190385759 19.60782856708851440
38.009497869018190385759 270.74097000904771448 38.009497869018190385759 19.55104960328009867
39.009497869018190385759 271.10706022650651903 39.009497869018190385759 19.49540781011844004
40.009497869018190385759 271.46034180369304067 40.009497869018190385759 19.44049956083878072
41.009497869018190385759 271.80152012040770160 41.009497869018190385759 19.38839485411443064
42.009497869018190385759 272.13124267396239020 42.009497869018190385759 19.33625606968185195
43.009497869018190385759 272.45011029212986386 43.009497869018190385759 19.28640012876316234
44.009497869018218807469 272.75868033946392188 44.009497869018218807469 19.23618450170426897
46.009497869018190385759 273.34695383025950832 46.009497869018190385759 19.13873003109899074
48.009497869018190385759 273.89977858375692676 48.009497869018190385759 19.04495641256270133
50.009497869018190385759 274.42038766264892047 50.009497869018190385759 18.95212269492059676
52.009497869018190385759 274.91160854931325730 52.009497869018190385759 18.86191837951603745
54.009497869018190385759 275.37593704214958734 54.009497869018190385759 18.77477959169376831
56.009497869018190385759 275.81557311274332278 56.009497869018190385759 18.68938906780640608
58.009497869018218807469 276.23248385943213634 58.009497869018218807469 18.60159805763496621
60.009497869018190385759 276.62841309109199983 60.009497869018190385759 18.51952536806861360
62.009497869018190385759 277.00493703011568414 62.009497869018190385759 18.43891974183315696
64.009497869018190385759 277.36346352050964015 64.009497869018190385759 18.35969827862967207
66.009497869018190385759 277.70526888863241766 66.009497869018190385759 18.28051239685391138
68.009497869018190385759 278.03151216855030725 68.009497869018190385759 18.20189529134712103
70.009497869018190385759 278.34323195074671276 70.009497869018190385759 18.12708257598404415
72.009497869018218807469 278.64139388025932931 72.009497869018218807469 18.05239079205479413
74.009497869018190385759 278.92686675091050574 74.009497869018190385759 17.97990532178987166
76.009497869018190385759 279.20044546655856266 76.009497869018190385759 17.90893359444539001
78.009497869018190385759 279.46287103668635154 78.009497869018190385759 17.83894161513231680
80.009497869018190385759 279.71481165054780149 80.009497869018190385759 17.77091461782541870
82.009497869018218807469 279.95688521400091986 82.009497869018218807469 17.70463384372084192
84.009497869018190385759 280.18967167926808770 84.009497869018190385759 17.64060901900969469
86.009497869018190385759 280.41369505418089147 86.009497869018190385759 17.57683047258296583
88.009497869018190385759 280.62944090859582502 88.009497869018190385759 17.51562666251316358
91.009497869018218807469 280.93854216888212250 91.009497869018218807469 17.42596821345672709
94.009497869018190385759 281.23144568093243834 94.009497869018190385759 17.33984521204430962
97.009497869018190385759 281.50941020283556782 97.009497869018190385759 17.25660525844457638
99.504748934509109403734 281.73004906467235742 99.504748934509109403734 17.20321243258169375
nan nan nan nan

