Time Pressure difference Time.1 Pressure.1 difference.1
(hr) (psi) (hr) (psi)
0.000200000000006639311 0.44859379909749753 0.000200000000006639311 0.35760293538077587
0.000399999999999067768 0.89693353196260861 0.000399999999999067768 0.93603581580270956
0.000600000000005707079 1.34505794443092963 0.000600000000005707079 1.36951290318873742
0.000799999999998135536 1.79298559553097014 0.000799999999998135536 1.81081199873547649
0.001007140329434719206 2.25670675910838181 0.001007140329434719206 2.27407149362924610
0.001267914553963578328 2.84022330021098135 0.001267914553963578328 2.86139364277305530
0.001596209851982166583 3.57440993133435514 0.001596209851982166583 3.60000587111943915
0.002009509145210586212 4.49805987447935429 0.002009509145210586212 4.52866722201363725
0.002529822128138903281 5.65989487233633159 0.002529822128138903281 5.69595220852653128
0.003184857364445292660 7.12107410668754870 0.003184857364445292660 7.16267459627165515
0.004009497869020606231 8.95831967163715248 0.004009497869020606231 9.00487579537708527
0.005047658755842121536 11.26780054566921052 0.005047658755842121536 11.31749046001502990
0.006354625877804664924 14.16994432162538686 0.006354625877804664924 14.21881328359439323
0.008000000000009777068 17.81537536258157317 0.008000000000009777068 17.85589611543310795
0.010071403294347192059 22.39220752267176451 0.010071403294347192059 22.41099720048084620
0.012679145539692626699 28.13494528506064896 0.012679145539692626699 28.10917463917831682
0.015962098519750611558 35.33526247033523759 0.015962098519750611558 35.22704870676719224
0.020095091452091651263 44.35492157435135852 0.020095091452091651263 44.10262930419808924
0.025298221281346400247 55.64105186784669144 0.025298221281346400247 55.14588170558018732
0.031848573644282396344 69.74389392256057363 0.031848573644282396344 68.84933830397497445
0.040094978690191851456 87.33690265286818999 0.040094978690191851456 85.79749219519514725
0.050476587558421215363 109.23872387277320684 0.050476587558421215363 106.67284931457923847
0.063546258777947173257 136.43594378537417811 0.063546258777947173257 132.25527659336867714
0.079999999999998294697 170.10455759744712623 0.079999999999998294697 163.40957423173637153
0.100714032943542974863 211.62669468195764466 0.100714032943542974863 201.05396582709337849
0.126791455396897845276 262.59715057096730106 0.126791455396897845276 246.09948285769814902
0.159620985197506115583 324.81161575413983655 0.159620985197506115583 299.34727609004983151
0.200950914520774404082 400.22516042189835161 0.200950914520774404082 361.32842155389835170
0.252982212813464002465 490.86577674728567899 0.252982212813464002465 432.07044853068424572
0.318485736442795541734 598.68437875785957658 0.318485736442795541734 510.78013254799384413
0.400949786901819038576 725.32151467504183984 0.400949786901819038576 595.44985703900181306
0.504765875584169521062 871.77609492094336474 0.504765875584169521062 682.43569387077513966
0.635462587779443310865 1037.97946862212552332 0.635462587779443310865 766.12964785172164284
0.799999999999997157829 1222.31776382304724393 0.799999999999997157829 838.95097312320808669
1.007140329435330272645 1421.21051621138053633 1.007140329435330272645 891.96315492592475493
1.267914553968893187630 1628.92962432903300396 1.267914553968893187630 916.37252432357979615
1.596209851975103788391 1837.88161984097723689 1.596209851975103788391 905.85208711276573013
2.009509145207687197399 2039.50437281984591209 2.009509145207687197399 859.06140769267187807
2.529822128134711078928 2225.70200671377824619 2.529822128134711078928 781.19835599158295736
3.184857364427983839050 2390.42681805850952514 3.184857364427983839050 683.44881534217131502
4.009497869018190385759 2530.81488062386051752 4.009497869018190385759 580.04343193514432642
5.009497869018190385759 2643.90491221990578197 5.009497869018190385759 486.67914853071840753
6.009497869018190385759 2721.72349302840666496 6.009497869018190385759 421.18906142830434192
7.009497869018204596614 2778.98472807419148012 7.009497869018204596614 375.62824307120183676
8.009497869018190385759 2823.39762065742070263 8.009497869018190385759 343.56191059822225498
9.009497869018204596614 2859.28404986992200065 9.009497869018204596614 321.08913108963673722
10.009497869018190385759 2889.21346618408779250 10.009497869018190385759 305.05655846584420487
11.009497869018190385759 2914.79670829885117200 11.009497869018190385759 292.05185818743001391
12.009497869018190385759 2937.08920199777139715 12.009497869018190385759 282.13580305794749847
13.009497869018190385759 2956.81228076707020591 13.009497869018190385759 274.41421472264289605
14.009497869018204596614 2974.47639074263361181 14.009497869018204596614 268.28151910439930816
15.009497869018190385759 2990.45420769329302857 15.009497869018190385759 263.31848643871677496
16.009497869018190385759 3005.02539177306425699 16.009497869018190385759 259.23162051209141055
17.009497869018190385759 3018.40499234312846966 17.009497869018190385759 255.88953841157160696
18.009497869018190385759 3030.76188074223227886 18.009497869018190385759 252.96346348226421696
19.009497869018204596614 3042.23066404383689587 19.009497869018204596614 250.54331426328394627
20.009497869018190385759 3052.92092939140002272 20.009497869018190385759 248.32354085870551330
21.009497869018204596614 3062.92321449739165473 21.009497869018204596614 246.36812084979831639
22.009497869018190385759 3072.31260299004497938 22.009497869018190385759 244.62718503638063794
23.009497869018190385759 3081.15264762074366445 23.009497869018190385759 243.08936612003540745
24.009497869018190385759 3089.49755778781081972 24.009497869018190385759 241.66449942949674323
25.009497869018190385759 3097.39360594946447236 25.009497869018190385759 240.36219482262552560
26.009497869018204596614 3104.88125538384974789 26.009497869018204596614 239.18975174826118746
27.009497869018190385759 3111.99534459981532564 27.009497869018190385759 238.07276240911181731
28.009497869018190385759 3118.76682954332682129 28.009497869018190385759 237.03110281082709321
29.009497869018190385759 3125.22267490614012786 29.009497869018190385759 236.06185082493593086
30.009497869018190385759 3131.38708574850306832 30.009497869018190385759 235.13918363917426291
31.009497869018190385759 3137.28142817878369897 31.009497869018190385759 234.26583541745682737
32.009497869018190385759 3142.92493972253987522 32.009497869018190385759 233.43465280509278159
33.009497869018190385759 3148.33489204946681639 33.009497869018190385759 232.64554592856998738
34.009497869018190385759 3153.52679788540035588 34.009497869018190385759 231.88289934506030932
35.009497869018190385759 3158.51483841661547558 35.009497869018190385759 231.14704841421527703
36.009497869018190385759 3163.31174870322047354 36.009497869018190385759 230.43833341366840273
37.009497869018190385759 3167.92920585231559016 37.009497869018190385759 229.75259994914583217
38.009497869018190385759 3172.37788771471150540 38.009497869018190385759 229.08729861234721170
39.009497869018190385759 3176.66751004537036351 39.009497869018190385759 228.43532194899651699
40.009497869018190385759 3180.80704852588178255 40.009497869018190385759 227.79194050635004487
41.009497869018190385759 3184.80476836738580459 41.009497869018190385759 227.18140926886255215
42.009497869018190385759 3188.66825654925514755 42.009497869018190385759 226.57047872953296519
43.009497869018190385759 3192.40455320560886321 43.009497869018190385759 225.98629716094228570
44.009497869018218807469 3196.02018919502279459 44.009497869018218807469 225.39790100910005322
46.009497869018190385759 3202.91321988064964899 46.009497869018190385759 224.25598884265991728
48.009497869018190385759 3209.39088384010847221 48.009497869018190385759 223.15720666024554930
50.009497869018190385759 3215.49106413408208027 50.009497869018190385759 222.06943766439570709
52.009497869018190385759 3221.24689147999652050 52.009497869018190385759 221.01247840345965301
54.009497869018190385759 3226.68761012431832569 54.009497869018190385759 219.99143912875959472
56.009497869018190385759 3231.83899799497021377 56.009497869018190385759 218.99088494668808380
58.009497869018218807469 3236.72410435291112663 58.009497869018218807469 217.96220332750533544
60.009497869018190385759 3241.36336208909960988 60.009497869018190385759 217.00052550845614974
62.009497869018190385759 3245.77524041809510891 62.009497869018190385759 216.05603784452327432
64.009497869018190385759 3249.97623559901558110 64.009497869018190385759 215.12776896046511865
66.009497869018190385759 3253.98130284723674777 66.009497869018190385759 214.19991699791867745
68.009497869018190385759 3257.80402301844787871 68.009497869018190385759 213.27872960948039349
70.009497869018190385759 3261.45656568374943163 70.009497869018190385759 212.40211974903044734
72.009497869018218807469 3264.95024568390863351 72.009497869018218807469 211.52692688951162836
74.009497869018190385759 3268.29524301610354087 74.009497869018190385759 210.67758627053785858
76.009497869018190385759 3271.50087187989265658 76.009497869018190385759 209.84598276969705921
78.009497869018190385759 3274.57581497334695086 78.009497869018190385759 209.02585935991996280
80.009497869018190385759 3277.52790173141875130 80.009497869018190385759 208.22876041321524099
82.009497869018218807469 3280.36437239883707662 82.009497869018218807469 207.45212264707680561
84.009497869018190385759 3283.09202250272846868 84.009497869018190385759 206.70191872274401135
86.009497869018190385759 3285.71699204790229487 86.009497869018190385759 205.95460053743954631
88.009497869018190385759 3288.24497064637262156 88.009497869018190385759 205.23745154553469661
91.009497869018218807469 3291.86683106581449465 91.009497869018218807469 204.18688841419947266
94.009497869018190385759 3295.29889613092609579 94.009497869018190385759 203.17775150634528813
97.009497869018190385759 3298.55591520279131146 97.009497869018190385759 202.20239639786146313
99.504748934509109403734 3301.14122708387822058 99.504748934509109403734 201.57677176438116362
nan nan nan nan

