Time Pressure difference Time.1 Pressure.1 difference.1
(hr) (psi) (hr) (psi)
0.000200000000006639311 0.79981194978236569 0.000200000000006639311 0.63758148590153174
0.000399999999999067768 1.59917091691292557 0.000399999999999067768 1.66888760479852305
0.000600000000005707079 2.39814598255681499 0.000600000000005707079 2.44174749529568968
0.000799999999998135536 3.19677023618787048 0.000799999999998135536 3.22855348939664699
0.001007140329434719206 4.02355323841030632 0.001007140329434719206 4.05451336804769191
0.001267914553963578328 5.06392317532978264 0.001267914553963578328 5.10166844286624510
0.001596209851982166583 6.37292753991153127 0.001596209851982166583 6.41856334349866486
0.002009509145210586212 8.01973198399751297 0.002009509145210586212 8.07430278359017706
0.002529822128138903281 10.09120403026941482 0.002529822128138903281 10.15549178551761855
0.003184857364445292660 12.69638630153382941 0.003184857364445292660 12.77055711877005528
0.004009497869020606231 15.97206902494119518 0.004009497869020606231 16.05507539769457992
0.005047658755842121536 20.08971488754751888 0.005047658755842121536 20.17830859383013475
0.006354625877804664924 25.26403802056028880 0.006354625877804664924 25.35116802510985679
0.008000000000009777068 31.76359132363801763 0.008000000000009777068 31.83583704439928752
0.010071403294347192059 39.92376888550569447 0.010071403294347192059 39.95726959120982258
0.012679145539692626699 50.16267610193559534 0.012679145539692626699 50.11672880936987440
0.015962098519750611558 63.00034737289826126 0.015962098519750611558 62.80740966085950561
0.020095091452091651263 79.08178039508655388 0.020095091452091651263 78.63196059616765865
0.025298221281346400247 99.20417596475077460 0.025298221281346400247 98.32132155670234397
0.031848573644282396344 124.34857524968592202 0.031848573644282396344 122.75364398909080421
0.040094978690191851456 155.71570213247926517 0.040094978690191851456 152.97103896026445113
0.050476587558421215363 194.76514590303352747 0.050476587558421215363 190.19036770187503294
0.063546258777947173257 243.25592203663185842 0.063546258777947173257 235.80207941786144943
0.079999999999998294697 303.28474926001246104 0.079999999999998294697 291.34805350036856453
0.100714032943542974863 377.31586936801727461 0.100714032943542974863 358.46541959153387324
0.126791455396897845276 468.19269331855207383 0.126791455396897845276 438.77848427875306925
0.159620985197506115583 579.11681398836435619 0.159620985197506115583 533.71564438318716839
0.200950914520774404082 713.57398731993373531 0.200950914520774404082 644.22377200982612067
0.252982212813464002465 875.17998414497503745 0.252982212813464002465 770.35194997771338876
0.318485736442795541734 1067.41315025288122342 0.318485736442795541734 910.68591350393705852
0.400949786901819038576 1293.19847050596536064 0.400949786901819038576 1061.64622006397166842
0.504765875584169521062 1554.31693361600468961 0.504765875584169521062 1216.73599593657672813
0.635462587779443310865 1850.64613978824218066 0.635462587779443310865 1365.95657065956311271
0.799999999999997157829 2179.30866611122155518 0.799999999999997157829 1495.79199475213931692
1.007140329435330272645 2533.92079049932590351 1.007140329435330272645 1590.30907585123145509
1.267914553968893187630 2904.26970126196783895 1.267914553968893187630 1633.82930589046395653
1.596209851975103788391 3276.81676561628773925 1.596209851975103788391 1615.07208852572875912
2.009509145207687197399 3636.29629365467917523 2.009509145207687197399 1531.64751909583992528
2.529822128134711078928 3968.27389323180204883 2.529822128134711078928 1392.82304287182046210
3.184857364427983839050 4261.96692421934676531 3.184857364427983839050 1218.54232197370447466
4.009497869018190385759 4512.26920274495387275 4.009497869018190385759 1034.17762168770627795
5.009497869018190385759 4713.90096594309761713 5.009497869018190385759 867.71551342860925615
6.009497869018190385759 4852.64615361836513330 6.009497869018190385759 750.95118373395268918
7.009497869018204596614 4954.73900497086833639 7.009497869018204596614 669.71937215477737482
8.009497869018190385759 5033.92414369532707497 8.009497869018190385759 612.54730256937205013
9.009497869018204596614 5097.90718353431384458 9.009497869018204596614 572.47987936389779406
10.009497869018190385759 5151.26927829853138974 10.009497869018190385759 543.89490294188544794
11.009497869018190385759 5196.88244281112474710 11.009497869018190385759 520.70841506144756750
12.009497869018190385759 5236.62842879380059458 12.009497869018190385759 503.02876945953164523
13.009497869018190385759 5271.79332433609397413 13.009497869018190385759 489.26170751105723866
14.009497869018204596614 5303.28721985838728870 14.009497869018204596614 478.32753220654501547
15.009497869018190385759 5331.77457067394243495 15.009497869018190385759 469.47878565418704966
16.009497869018190385759 5357.75399163991551177 16.009497869018190385759 462.19218425254143767
17.009497869018190385759 5381.60890100509550393 17.009497869018190385759 456.23348128667959145
18.009497869018190385759 5403.64038477418307593 18.009497869018190385759 451.01649055001092847
19.009497869018204596614 5424.08843811897440901 19.009497869018204596614 446.70153062526139820
20.009497869018190385759 5443.14844739357249637 20.009497869018190385759 442.74382702266416345
21.009497869018204596614 5460.98183512429204711 21.009497869018204596614 439.25744737784077643
22.009497869018190385759 5477.72247026610966714 22.009497869018190385759 436.15347833017023049
23.009497869018190385759 5493.48366301212354301 23.009497869018190385759 433.41165276689054053
24.009497869018190385759 5508.36206499830495886 24.009497869018190385759 430.87121326854617109
25.009497869018190385759 5522.44017684125356027 25.009497869018190385759 428.54929355202807528
26.009497869018204596614 5535.79014178827401338 26.009497869018204596614 426.45890803354171794
27.009497869018190385759 5548.47407450913306093 27.009497869018190385759 424.46739271828653273
28.009497869018190385759 5560.54716733049554023 28.009497869018190385759 422.61018515993481515
29.009497869018190385759 5572.05749644675415766 29.009497869018190385759 420.88207540401378992
30.009497869018190385759 5583.04821781876034947 30.009497869018190385759 419.23702314888021192
31.009497869018190385759 5593.55742575104159187 31.009497869018190385759 417.67990322110580337
32.009497869018190385759 5603.61941943109559361 32.009497869018190385759 416.19796168032314654
33.009497869018190385759 5613.26499306036657799 33.009497869018190385759 414.79103828822957212
34.009497869018190385759 5622.52180476413741417 34.009497869018190385759 413.43129178219476216
35.009497869018190385759 5631.41513862405736290 35.009497869018190385759 412.11932008545613826
36.009497869018190385759 5639.96770037809710630 36.009497869018190385759 410.85572988967601304
37.009497869018190385759 5648.20030950663294789 37.009497869018190385759 409.63311419504481137
38.009497869018190385759 5656.13200388467066659 38.009497869018190385759 408.44692758156895707
39.009497869018190385759 5663.78010603636539599 39.009497869018190385759 407.28449794617006319
40.009497869018190385759 5671.16061898584848677 40.009497869018190385759 406.13739299926237436
41.009497869018190385759 5678.28827903721321491 41.009497869018190385759 405.04885771312967790
42.009497869018190385759 5685.17661325386688986 42.009497869018190385759 403.95961049922294706
43.009497869018190385759 5691.83817371166969679 43.009497869018190385759 402.91805486394343916
44.009497869018218807469 5698.28460448314763198 44.009497869018218807469 401.86898491603921002
46.009497869018190385759 5710.57440501911696629 46.009497869018190385759 399.83303391056807641
48.009497869018190385759 5722.12363519544305746 48.009497869018190385759 397.87398070592945487
50.009497869018190385759 5732.99983790881833556 50.009497869018190385759 395.93456325692818609
52.009497869018190385759 5743.26208295413107408 52.009497869018190385759 394.05007745032412458
54.009497869018190385759 5752.96251081534319383 54.009497869018190385759 392.22963451342849339
56.009497869018190385759 5762.14708176839758380 56.009497869018190385759 390.44571509047733571
58.009497869018218807469 5770.85689106335394172 58.009497869018218807469 388.61164637798265176
60.009497869018190385759 5779.12836914216040896 60.009497869018190385759 386.89704084160740649
62.009497869018190385759 5786.99444534654776362 62.009497869018190385759 385.21308417177527872
64.009497869018190385759 5794.48453137412525393 64.009497869018190385759 383.55804447311123795
66.009497869018190385759 5801.62529134729902580 66.009497869018190385759 381.90374811688280943
68.009497869018190385759 5808.44093899949621118 68.009497869018190385759 380.26133423879525708
70.009497869018190385759 5814.95317184059877036 70.009497869018190385759 378.69839903305802409
72.009497869018218807469 5821.18216345498331066 72.009497869018218807469 377.13799024270991822
74.009497869018190385759 5827.14606407880455663 74.009497869018190385759 375.62367422261013417
76.009497869018190385759 5832.86148029049400066 76.009497869018190385759 374.14098226656562929
78.009497869018190385759 5838.34389274468685471 78.009497869018190385759 372.67875852482944765
80.009497869018190385759 5843.60726078644347581 80.009497869018190385759 371.25758582022240262
82.009497869018218807469 5848.66449327510690637 82.009497869018218807469 369.87289399599410444
84.009497869018190385759 5853.52770616905763745 84.009497869018190385759 368.53533189713732554
86.009497869018190385759 5858.20784667538828216 86.009497869018190385759 367.20291487287460086
88.009497869018190385759 5862.71505898175109905 88.009497869018190385759 365.92428744945982544
91.009497869018218807469 5869.17258748468975682 91.009497869018218807469 364.05120550286773096
94.009497869018190385759 5875.29172389948053024 94.009497869018190385759 362.25198366901264535
97.009497869018190385759 5881.09876532445741759 97.009497869018190385759 360.51299246446171765
99.504748934509109403734 5885.70819893804582534 99.504748934509109403734 359.39754668936967619
nan nan nan nan

