Time Pressure difference Time.1 Pressure.1 difference.1
(hr) (psi) (hr) (psi)
0.000200000000006639311 0.58841524297204217 0.000200000000006639311 0.46906359056439428
0.000399999999999067768 1.17649723023666852 0.000399999999999067768 1.22778723891004771
0.000600000000005707079 1.76429678425355707 0.000600000000005707079 1.79637406781899345
0.000799999999998135536 2.35183824868348035 0.000799999999998135536 2.37522093340627416
0.001007140329434719206 2.96009587883047454 0.001007140329434719206 2.98287299813706319
0.001267914553963578328 3.72548770547154673 0.001267914553963578328 3.75325659636465714
0.001596209851982166583 4.68851172811389461 0.001596209851982166583 4.72208562315666658
0.002009509145210586212 5.90005256262876276 0.002009509145210586212 5.94019986264126487
0.002529822128138903281 7.42401794942817439 0.002529822128138903281 7.47131393585947645
0.003184857364445292660 9.34062967240834219 0.003184857364445292660 9.39519654835632601
0.004009497869020606231 11.75052320565392705 0.004009497869020606231 11.81159032900110972
0.005047658755842121536 14.77984227418948571 0.005047658755842121536 14.84501995404568930
0.006354625877804664924 18.58655034395018291 0.006354625877804664924 18.65065119016927042
0.008000000000009777068 23.36821963143816916 0.008000000000009777068 23.42137022933433599
0.010071403294347192059 29.37159688038764216 0.010071403294347192059 29.39624308115020312
0.012679145539692626699 36.90427888040422744 0.012679145539692626699 36.87047582541571700
0.015962098519750611558 46.34885077277738930 0.015962098519750611558 46.20690804394138240
0.020095091452091651263 58.17983219492840163 0.020095091452091651263 57.84890337303905739
0.025298221281346400247 72.98371738509760576 0.025298221281346400247 72.33420847095584350
0.031848573644282396344 91.48225046985218967 0.031848573644282396344 90.30887232079832927
0.040094978690191851456 114.55879438882710986 0.040094978690191851456 112.53956768460662374
0.050476587558421215363 143.28715728766357529 0.050476587558421215363 139.92152962042209197
0.063546258777947173257 178.96143275743884260 0.063546258777947173257 173.47770046662645882
0.079999999999998294697 223.12415996548261887 0.079999999999998294697 214.34242853773210413
0.100714032943542974863 277.58826185555483335 0.100714032943542974863 263.72013699397967912
0.126791455396897845276 344.44561308659348242 0.126791455396897845276 322.80581517698067273
0.159620985197506115583 426.05159988530033388 0.159620985197506115583 392.65032318305242143
0.200950914520774404082 524.97066496898355581 0.200950914520774404082 473.95026723303544713
0.252982212813464002465 643.86290196721893153 0.252982212813464002465 566.74175716362481126
0.318485736442795541734 785.28730200706252162 0.318485736442795541734 669.98432970581006884
0.400949786901819038576 951.39575301531465357 0.400949786901819038576 781.04461767453483390
0.504765875584169521062 1143.49851411708164051 0.504765875584169521062 895.14292312919860706
0.635462587779443310865 1361.50553676408662795 0.635462587779443310865 1004.92330432498556547
0.799999999999997157829 1603.29992397568548768 0.799999999999997157829 1100.44218552524716870
1.007140329435330272645 1864.18522256297978856 1.007140329435330272645 1169.97764477296618679
1.267914553968893187630 2136.64794879522514748 1.267914553968893187630 1201.99512930755258822
1.596209851975103788391 2410.72783901219099789 1.596209851975103788391 1188.19559478427709109
2.009509145207687197399 2675.19404746499321845 2.009509145207687197399 1126.82080749298529554
2.529822128134711078928 2919.42730750768350845 2.529822128134711078928 1024.68875266428426585
3.184857364427983839050 3135.49491719362958975 3.184857364427983839050 896.47182272154952898
4.009497869018190385759 3319.64029796116756188 4.009497869018190385759 760.83618994090363685
5.009497869018190385759 3467.97917057416225362 5.009497869018190385759 638.37135067016311041
6.009497869018190385759 3570.05289345284518276 6.009497869018190385759 552.46876888647716441
7.009497869018204596614 3645.16178617523792127 7.009497869018204596614 492.70717597651150754
8.009497869018190385759 3703.41765826492837732 8.009497869018190385759 450.64614247299277849
9.009497869018204596614 3750.48946801119609518 9.009497869018204596614 421.16886026043255242
10.009497869018190385759 3789.74753356614110089 10.009497869018190385759 400.13912214350995100
11.009497869018190385759 3823.30477322316846767 11.009497869018190385759 383.08100879130432759
12.009497869018190385759 3852.54557664642788950 12.009497869018190385759 370.07423517990514483
13.009497869018190385759 3878.41610853862493968 13.009497869018190385759 359.94591801281734433
14.009497869018204596614 3901.58591512994735240 14.009497869018204596614 351.90173285122506286
15.009497869018190385759 3922.54383087042288025 15.009497869018190385759 345.39178091312197694
16.009497869018190385759 3941.65668271531740174 16.009497869018190385759 340.03108664573028364
17.009497869018190385759 3959.20654839812959835 17.009497869018190385759 335.64731661777574345
18.009497869018190385759 3975.41493448007031475 18.009497869018190385759 331.80921833387901643
19.009497869018204596614 3990.45840348607134729 19.009497869018204596614 328.63473689080103668
20.009497869018190385759 4004.48069959131726137 20.009497869018190385759 325.72308606141893961
21.009497869018204596614 4017.60058005502105516 21.009497869018204596614 323.15818449129386636
22.009497869018190385759 4029.91653119473448896 22.009497869018190385759 320.87461933343428200
23.009497869018190385759 4041.51191441162427509 23.009497869018190385759 318.85748023537109930
24.009497869018190385759 4052.45783553985529579 24.009497869018190385759 316.98849925167758101
25.009497869018190385759 4062.81498962202522307 25.009497869018190385759 315.28028152058675460
26.009497869018204596614 4072.63645186712801660 26.009497869018204596614 313.74240164382308649
27.009497869018190385759 4081.96791954001719205 27.009497869018190385759 312.27725978338042978
28.009497869018190385759 4090.84999719319466749 28.009497869018190385759 310.91092706355243536
29.009497869018190385759 4099.31805409766366211 29.009497869018190385759 309.63957056257828526
30.009497869018190385759 4107.40383974803626188 30.009497869018190385759 308.42931879943631657
31.009497869018190385759 4115.13537981892477546 31.009497869018190385759 307.28375814497587726
32.009497869018190385759 4122.53790794774613460 32.009497869018190385759 306.19350562745938760
33.009497869018190385759 4129.63407918176835665 33.009497869018190385759 305.15844336085154964
34.009497869018190385759 4136.44424138214890263 34.009497869018190385759 304.15808875131290279
35.009497869018190385759 4142.98699584517089534 35.009497869018190385759 303.19288168617845258
36.009497869018190385759 4149.27904700032831897 36.009497869018190385759 302.26326850364296206
37.009497869018190385759 4155.33571157251753903 37.009497869018190385759 301.36379993329518356
38.009497869018190385759 4161.17099557384244690 38.009497869018190385759 300.49113194606582056
39.009497869018190385759 4166.79764304652417195 39.009497869018190385759 299.63594177725514101
40.009497869018190385759 4172.22742728719549632 40.009497869018190385759 298.79202585897866129
41.009497869018190385759 4177.47118967670121492 41.009497869018190385759 297.99119917084567533
42.009497869018190385759 4182.53888196720436099 42.009497869018190385759 297.18984872315360235
43.009497869018190385759 4187.43973862034363265 43.009497869018190385759 296.42358458772946506
44.009497869018218807469 4192.18232608697780961 44.009497869018218807469 295.65179223271564979
46.009497869018190385759 4201.22383386942328798 46.009497869018190385759 294.15395939102148759
48.009497869018190385759 4209.72050997208953049 48.009497869018190385759 292.71269964525714613
50.009497869018190385759 4217.72204516288638843 50.009497869018190385759 291.28588576758397721
52.009497869018190385759 4225.27189661661850550 52.009497869018190385759 289.89948465908344133
54.009497869018190385759 4232.40842366956076148 54.009497869018190385759 288.56019937668469311
56.009497869018190385759 4239.16543892846675590 56.009497869018190385759 287.24778415085063443
58.009497869018218807469 4245.57317583953317808 58.009497869018218807469 285.89847449451997363
60.009497869018190385759 4251.65843598700121220 60.009497869018190385759 284.63705293966330601
62.009497869018190385759 4257.44544522373507789 62.009497869018190385759 283.39817951034876842
64.009497869018190385759 4262.95584150000740919 64.009497869018190385759 282.18058006502565149
66.009497869018190385759 4268.20924139702401590 66.009497869018190385759 280.96352749077641420
68.009497869018190385759 4273.22345876445706381 68.009497869018190385759 279.75521676048725794
70.009497869018190385759 4278.01445628647616104 70.009497869018190385759 278.60537785262431498
72.009497869018218807469 4282.59707550746406923 72.009497869018218807469 277.45739760832043430
74.009497869018190385759 4286.98466941073274938 74.009497869018190385759 276.34332744577045560
76.009497869018190385759 4291.18945532297584577 76.009497869018190385759 275.25252285375847805
78.009497869018190385759 4295.22282223776710453 78.009497869018190385759 274.17677656301191291
80.009497869018190385759 4299.09503993341877504 80.009497869018190385759 273.13123119136025707
82.009497869018218807469 4302.81560535431890457 82.009497869018218807469 272.11252451110078709
84.009497869018190385759 4306.39343211396771949 84.009497869018190385759 271.12849079217073722
86.009497869018190385759 4309.83657398491141066 86.009497869018190385759 270.14824226339470670
88.009497869018190385759 4313.15249396472245280 88.009497869018190385759 269.20756631297405193
91.009497869018218807469 4317.90324594347111997 91.009497869018218807469 267.82955493291098037
94.009497869018190385759 4322.40504557433087029 94.009497869018190385759 266.50588184598535690
97.009497869018190385759 4326.67723942184329644 97.009497869018190385759 265.22651995044162732
99.504748934509109403734 4330.06836279833351000 99.504748934509109403734 264.40589543120120197
nan nan nan nan

