Time Pressure difference Time.1 Pressure.1 difference.1
(hr) (psi) (hr) (psi)
0.000200000000006639311 0.60339611195860066 0.000200000000006639311 0.48100580361978196
0.000399999999999067768 1.20645048362317486 0.000399999999999067768 1.25904631995726235
0.000600000000005707079 1.80921523137740992 0.000600000000005707079 1.84210919260080641
0.000799999999998135536 2.41171531866410627 0.000799999999998135536 2.43569331926385946
0.001007140329434719206 3.03545899880069925 0.001007140329434719206 3.05881601647718604
0.001267914553963578328 3.82033746317803580 0.001267914553963578328 3.84881334139232845
0.001596209851982166583 4.80787977776884556 0.001596209851982166583 4.84230845373208396
0.002009509145210586212 6.05026606493048558 0.002009509145210586212 6.09143550270851009
0.002529822128138903281 7.61303113625944405 0.002529822128138903281 7.66153126378800575
0.003184857364445292660 9.57843919730699866 0.003184857364445292660 9.63439532893682582
0.004009497869020606231 12.04968787001286756 0.004009497869020606231 12.11230974331797050
0.005047658755842121536 15.15613245938808618 0.005047658755842121536 15.22296954269182834
0.006354625877804664924 19.05975813205640890 0.006354625877804664924 19.12549096587371977
0.008000000000009777068 23.96316723167280216 0.008000000000009777068 24.01767102725232661
0.010071403294347192059 30.11938859728577000 0.010071403294347192059 30.14466228265048997
0.012679145539692626699 37.84385033704818113 0.012679145539692626699 37.80918666679828988
0.015962098519750611558 47.52887809089619964 0.015962098519750611558 47.38332154435290278
0.020095091452091651263 59.66107261856166133 0.020095091452091651263 59.32171845184344505
0.025298221281346400247 74.84186011908877845 0.025298221281346400247 74.17581491010322736
0.031848573644282396344 93.81136009991914193 0.031848573644282396344 92.60810810831512185
0.040094978690191851456 117.47542564625126715 0.040094978690191851456 115.40479005847214466
0.050476587558421215363 146.93520372497326321 0.050476587558421215363 143.48388822461956238
0.063546258777947173257 183.51773514730291481 0.063546258777947173257 177.89438873876122216
0.079999999999998294697 228.80483164777214711 0.079999999999998294697 219.79952007051736018
0.100714032943542974863 284.65557262415450168 0.100714032943542974863 270.43436961900317783
0.126791455396897845276 353.21509121326766945 0.126791455396897845276 331.02435078261811441
0.159620985197506115583 436.89874104221041762 0.159620985197506115583 402.64707822873123177
0.200950914520774404082 538.33625474188545468 0.200950914520774404082 486.01689355580020901
0.252982212813464002465 660.25545109792597032 0.252982212813464002465 581.17082594572559628
0.318485736442795541734 805.28047235519147762 0.318485736442795541734 687.04192225843326014
0.400949786901819038576 975.61799283748666767 0.400949786901819038576 800.92977059977067711
0.504765875584169521062 1172.61163045952503126 0.504765875584169521062 917.93298340688681947
0.635462587779443310865 1396.16904406501089397 0.635462587779443310865 1030.50833894712104666
0.799999999999997157829 1644.11944113489676056 0.799999999999997157829 1128.45910113975128297
1.007140329435330272645 1911.64679824350810122 1.007140329435330272645 1199.76491154229211133
1.267914553968893187630 2191.04634070231713849 1.267914553968893187630 1232.59755127012113007
1.596209851975103788391 2472.10421963767794296 1.596209851975103788391 1218.44668489193895766
2.009509145207687197399 2743.30365546268740218 2.009509145207687197399 1155.50931461444747583
2.529822128134711078928 2993.75501830703024098 2.529822128134711078928 1050.77700945064498228
3.184857364427983839050 3215.32364210096375245 3.184857364427983839050 919.29571636933997070
4.009497869018190385759 3404.15730696159380386 4.009497869018190385759 780.20684258437790959
5.009497869018190385759 3556.27284111211838535 5.009497869018190385759 654.62408661367499008
6.009497869018190385759 3660.94532921260633884 6.009497869018190385759 566.53445182842426675
7.009497869018204596614 3737.96647097177901742 7.009497869018204596614 505.25134735922330265
8.009497869018190385759 3797.70551943716145615 8.009497869018190385759 462.11945303100395677
9.009497869018204596614 3845.97576281204737825 9.009497869018204596614 431.89168838587494292
10.009497869018190385759 3886.23332649993244559 10.009497869018190385759 410.32653968040267500
11.009497869018190385759 3920.64492303648785310 11.009497869018190385759 392.83413207029087744
12.009497869018190385759 3950.63018821592686436 12.009497869018190385759 379.49621005011488251
13.009497869018190385759 3977.15937579986302808 13.009497869018190385759 369.11002907962171093
14.009497869018204596614 4000.91907845715968506 14.009497869018204596614 360.86104146695646477
15.009497869018190385759 4022.41057621083064078 15.009497869018190385759 354.18534817823683625
16.009497869018190385759 4042.01003531627338816 16.009497869018190385759 348.68817230290585485
17.009497869018190385759 4060.00671511830796589 17.009497869018190385759 344.19279285415478853
18.009497869018190385759 4076.62776166626736085 18.009497869018190385759 340.25697778226628998
19.009497869018204596614 4092.05423271202516844 19.009497869018204596614 337.00167502946351306
20.009497869018190385759 4106.43353211273642955 20.009497869018190385759 334.01589447599536697
21.009497869018204596614 4119.88744065048103948 21.009497869018204596614 331.38569131002554968
22.009497869018190385759 4132.51695207380817010 22.009497869018190385759 329.04398729383291311
23.009497869018190385759 4144.40755013921898353 23.009497869018190385759 326.97549246201424467
24.009497869018190385759 4155.63215101328933088 24.009497869018190385759 325.05892780405406484
25.009497869018190385759 4166.25299501551307912 25.009497869018190385759 323.30721938108257518
26.009497869018204596614 4176.32450863319263590 26.009497869018204596614 321.73018556120479161
27.009497869018190385759 4185.89355256932503835 27.009497869018190385759 320.22774164490920157
28.009497869018190385759 4195.00176515568091418 28.009497869018190385759 318.82662251920157814
29.009497869018190385759 4203.68541615389858634 29.009497869018190385759 317.52289767732571590
30.009497869018190385759 4211.97706339084379579 30.009497869018190385759 316.28183328089295401
31.009497869018190385759 4219.90544606608182221 31.009497869018190385759 315.10710700863859302
32.009497869018190385759 4227.49644025758971111 32.009497869018190385759 313.98909700128433542
33.009497869018190385759 4234.77327780308587535 33.009497869018190385759 312.92768237145310195
34.009497869018190385759 4241.75682461394262646 34.009497869018190385759 311.90185904483996637
35.009497869018190385759 4248.46615556965934957 35.009497869018190385759 310.91207810817451218
36.009497869018190385759 4254.91840038930331502 36.009497869018190385759 309.95879726328314518
37.009497869018190385759 4261.12926575682467956 37.009497869018190385759 309.03642850302549050
38.009497869018190385759 4267.11311427303462551 38.009497869018190385759 308.14154266039281538
39.009497869018190385759 4272.88301443950513203 39.009497869018190385759 307.26457961599714963
40.009497869018190385759 4278.45103929733613768 40.009497869018190385759 306.39917786104604147
41.009497869018190385759 4283.82830624555663235 41.009497869018190385759 305.57796237462957833
42.009497869018190385759 4289.02502040484250756 42.009497869018190385759 304.75620979389873355
43.009497869018190385759 4294.05065134335109178 43.009497869018190385759 303.97043681202808330
44.009497869018218807469 4298.91398361111532722 44.009497869018218807469 303.17899486381730867
46.009497869018190385759 4308.18568536822112947 46.009497869018190385759 301.64302766406018463
48.009497869018190385759 4316.89868420051698195 48.009497869018190385759 300.16507389365125391
50.009497869018190385759 4325.10393598740120069 50.009497869018190385759 298.70193377863989781
52.009497869018190385759 4332.84600430982845864 52.009497869018190385759 297.28023532932883199
54.009497869018190385759 4340.16422512083681795 54.009497869018190385759 295.90685226039090594
56.009497869018190385759 4347.09327188562747324 56.009497869018190385759 294.56102335129662606
58.009497869018218807469 4353.66414778452781320 58.009497869018218807469 293.17736069098583584
60.009497869018190385759 4359.90433676177599409 60.009497869018190385759 291.88382373586404128
62.009497869018190385759 4365.83868145291035034 62.009497869018190385759 290.61340897454431342
64.009497869018190385759 4371.48937070368538116 64.009497869018190385759 289.36480982622856573
66.009497869018190385759 4376.87652052735938923 66.009497869018190385759 288.11677147215402783
68.009497869018190385759 4382.01839830867265846 68.009497869018190385759 286.87769752666656586
70.009497869018190385759 4386.93137313676834310 70.009497869018190385759 285.69858407800938949
72.009497869018218807469 4391.63066441712999222 72.009497869018218807469 284.52137661390707990
74.009497869018190385759 4396.12996509587264882 74.009497869018190385759 283.37894257168818513
76.009497869018190385759 4400.44180354902073304 76.009497869018190385759 282.26036643419359962
78.009497869018190385759 4404.57785873038301361 78.009497869018190385759 281.15723197762883956
80.009497869018190385759 4408.54866188363303081 80.009497869018190385759 280.08506734616150879
82.009497869018218807469 4412.36395174240624328 82.009497869018218807469 279.04042471081760368
84.009497869018190385759 4416.03286885803026962 84.009497869018190385759 278.03133779960933225
86.009497869018190385759 4419.56367204959042283 86.009497869018190385759 277.02613244831849215
88.009497869018190385759 4422.96401432026050315 88.009497869018190385759 276.06150718091396357
91.009497869018218807469 4427.83571896607736562 91.009497869018218807469 274.64841205991581319
94.009497869018190385759 4432.45213301469630096 94.009497869018190385759 273.29103866808964085
97.009497869018190385759 4436.83309558816927165 97.009497869018190385759 271.97910461678952743
99.504748934509109403734 4440.31055591059703147 99.504748934509109403734 271.13758725264625582
nan nan nan nan

