Time Pressure difference Time.1 Pressure.1 difference.1
(hr) (psi) (hr) (psi)
0.000200000000006639311 0.57176983298697737 0.000200000000006639311 0.45579446494729686
0.000399999999999067768 1.14321583758499479 0.000399999999999067768 1.19305492663536450
0.000600000000005707079 1.71438739856038680 0.000600000000005707079 1.74555726250586773
0.000799999999998135536 2.28530817092722893 0.000799999999998135536 2.30802939356451242
0.001007140329434719206 2.87635907886355913 0.001007140329434719206 2.89849186664803726
0.001267914553963578328 3.62009908579767004 0.001267914553963578328 3.64708243522279929
0.001596209851982166583 4.55588056183061596 0.001596209851982166583 4.58850470029509161
0.002009509145210586212 5.73314867118240556 0.002009509145210586212 5.77216026256654757
0.002529822128138903281 7.21400329739343160 0.002529822128138903281 7.25996134927222059
0.003184857364445292660 9.07639686696539094 0.003184857364445292660 9.12942012548910320
0.004009497869020606231 11.41811802303288381 0.004009497869020606231 11.47745764642682076
0.005047658755842121536 14.36174206841326395 0.005047658755842121536 14.42507596666108505
0.006354625877804664924 18.06076391272103976 0.006354625877804664924 18.12305143938654695
0.008000000000009777068 22.70716674228857457 0.008000000000009777068 22.75881378720323411
0.010071403294347192059 28.54071719494527315 0.010071403294347192059 28.56466619059432688
0.012679145539692626699 35.86031059524427889 0.012679145539692626699 35.82746377943507099
0.015962098519750611558 45.03770930820094520 0.015962098519750611558 44.89978193237303117
0.020095091452091651263 56.53400950200256148 0.020095091452091651263 56.21244217436751711
0.025298221281346400247 70.91911434732963926 0.025298221281346400247 70.28797909412540434
0.031848573644282396344 88.89435088088889358 0.031848573644282396344 87.75416589022412950
0.040094978690191851456 111.31809299168914151 0.040094978690191851456 109.35598726920049728
0.050476587558421215363 139.23377235731950918 0.050476587558421215363 135.96335339353603899
0.063546258777947173257 173.89887454647876552 0.063546258777947173257 168.57026905314339160
0.079999999999998294697 216.81230254071650165 0.079999999999998294697 208.27899350130405765
0.100714032943542974863 269.73569433488853520 0.100714032943542974863 256.25987852173130932
0.126791455396897845276 334.70174850139983391 0.126791455396897845276 313.67410894849467695
0.159620985197506115583 413.99922082206700225 0.159620985197506115583 381.54281757674255005
0.200950914520774404082 510.12000966575914163 0.200950914520774404082 460.54290465218582540
0.252982212813464002465 625.64895848865546668 0.252982212813464002465 550.70945851684609806
0.318485736442795541734 763.07266828691933824 0.318485736442795541734 651.03144909178433863
0.400949786901819038576 924.48215321290126667 0.400949786901819038576 758.95000331316191478
0.504765875584169521062 1111.15060706992244377 0.504765875584169521062 869.82063393176724730
0.635462587779443310865 1322.99052865194835249 0.635462587779443310865 976.49548807816825047
0.799999999999997157829 1557.94490490989528553 0.799999999999997157829 1069.31227928690896078
1.007140329435330272645 1811.45013847350355718 1.007140329435330272645 1136.88068169593771017
1.267914553968893187630 2076.20529112067879396 1.267914553968893187630 1167.99243823803226405
1.596209851975103788391 2342.53186053942772560 1.596209851975103788391 1154.58327244243059795
2.009509145207687197399 2599.51670524533255957 2.009509145207687197399 1094.94468846913855486
2.529822128134711078928 2836.84096217507567417 2.529822128134711078928 995.70180067943874747
3.184857364427983839050 3046.79633396325789363 3.184857364427983839050 871.11194089067112145
4.009497869018190385759 3225.73251018291693981 4.009497869018190385759 739.31324255926563183
5.009497869018190385759 3369.87509219865569321 5.009497869018190385759 620.31275517737208247
6.009497869018190385759 3469.06129816422162548 6.009497869018190385759 536.84023228431374264
7.009497869018204596614 3542.04546973463766335 7.009497869018204596614 478.76920777349846503
8.009497869018190385759 3598.65336807355834026 8.009497869018190385759 437.89801963075825597
9.009497869018204596614 3644.39358489914002348 9.009497869018204596614 409.25460678771872836
10.009497869018190385759 3682.54109697303965731 10.009497869018190385759 388.81976932474020714
11.009497869018190385759 3715.14905120836874630 11.009497869018190385759 372.24420514798589465
12.009497869018190385759 3743.56267490254049335 12.009497869018190385759 359.60537421300540473
13.009497869018190385759 3768.70136713724923538 13.009497869018190385759 349.76357238303461372
14.009497869018204596614 3791.21573365526683119 14.009497869018204596614 341.94694550041248249
15.009497869018190385759 3811.58078049219329841 15.009497869018190385759 335.62115061854996156
16.009497869018190385759 3830.15295760314484141 16.009497869018190385759 330.41210258220183960
17.009497869018190385759 3847.20636315348656353 17.009497869018190385759 326.15234302179902670
18.009497869018190385759 3862.95623760651824341 18.009497869018190385759 322.42281894678200160
19.009497869018204596614 3877.57414879056705104 19.009497869018204596614 319.33813895895377755
20.009497869018190385759 3891.19977456751712452 20.009497869018190385759 316.50885448966727154
21.009497869018204596614 3903.94851272673167841 21.009497869018204596614 314.01651024825866898
22.009497869018190385759 3915.91606355131943928 22.009497869018190385759 311.79754382188031059
23.009497869018190385759 3927.18343026985303368 23.009497869018190385759 309.83746665021209310
24.009497869018190385759 3937.81970723604081286 24.009497869018190385759 308.02135641570362168
25.009497869018190385759 3947.88387251814856427 25.009497869018190385759 306.36146167559132891
26.009497869018204596614 3957.42749990483298461 26.009497869018204596614 304.86708618006571214
27.009497869018190385759 3966.49499395189877760 27.009497869018190385759 303.44339104834847376
28.009497869018190385759 3975.12581056821045422 28.009497869018190385759 302.11570989060891179
29.009497869018190385759 3983.35431847962536267 29.009497869018190385759 300.88031821285898104
30.009497869018190385759 3991.21136903380647709 30.009497869018190385759 299.70430270892893532
31.009497869018190385759 3998.72419509986002595 31.009497869018190385759 298.59114829646171074
32.009497869018190385759 4005.91731649236498924 32.009497869018190385759 297.53173743432051879
33.009497869018190385759 4012.81274738030379012 33.009497869018190385759 296.52595557129421877
34.009497869018190385759 4019.43026001348789578 34.009497869018190385759 295.55389953628281319
35.009497869018190385759 4025.78792948462842105 35.009497869018190385759 294.61599677284948484
36.009497869018190385759 4031.90198767924312051 36.009497869018190385759 293.71268099293178011
37.009497869018190385759 4037.78731803439859505 37.009497869018190385759 292.83865707803931855
38.009497869018190385759 4043.45753035251709662 38.009497869018190385759 291.99067559681361672
39.009497869018190385759 4048.92500816543451947 39.009497869018190385759 291.15967751198627411
40.009497869018190385759 4054.20119172037266253 40.009497869018190385759 290.33963474557043583
41.009497869018190385759 4059.29661571130645825 41.009497869018190385759 289.56146227775246871
42.009497869018190385759 4064.22095036983000682 42.009497869018190385759 288.78278086677022429
43.009497869018190385759 4068.98316892811317302 43.009497869018190385759 288.03819322739764175
44.009497869018218807469 4073.59159550460208266 44.009497869018218807469 287.28823375371376869
46.009497869018190385759 4082.37733220409290880 46.009497869018190385759 285.83277242097841508
48.009497869018190385759 4090.63364971828286798 48.009497869018190385759 284.43228381370812485
50.009497869018190385759 4098.40883313564791024 50.009497869018190385759 283.04583242196633819
52.009497869018190385759 4105.74511029083078029 52.009497869018190385759 281.69865058103300726
54.009497869018190385759 4112.67975539036433474 54.009497869018190385759 280.39725172812217124
56.009497869018190385759 4119.24562453162252496 56.009497869018190385759 279.12196281702176748
58.009497869018218807469 4125.47209590064994700 58.009497869018218807469 277.81082316511350427
60.009497869018190385759 4131.38521290391690854 60.009497869018190385759 276.58508538832910517
62.009497869018190385759 4137.00851608020639105 62.009497869018190385759 275.38125788346479794
64.009497869018190385759 4142.36303127369956201 64.009497869018190385759 274.19810255257795006
66.009497869018190385759 4147.46782014109703596 66.009497869018190385759 273.01547862257910992
68.009497869018190385759 4152.34019260421882791 68.009497869018190385759 271.84134924251026177
70.009497869018190385759 4156.99565978615191852 70.009497869018190385759 270.72403760219651758
72.009497869018218807469 4161.44864338561183104 72.009497869018218807469 269.60853204655751370
74.009497869018190385759 4165.71211864946781134 74.009497869018190385759 268.52597730586177249
76.009497869018190385759 4169.79795729403758742 76.009497869018190385759 267.46602998660830508
78.009497869018190385759 4173.71722613485962938 78.009497869018190385759 266.42071499121522038
80.009497869018190385759 4177.47990443318121834 80.009497869018190385759 265.40474657491444077
82.009497869018218807469 4181.09522047866630601 82.009497869018218807469 264.41485762252648328
84.009497869018190385759 4184.57183573167822033 84.009497869018190385759 263.45866078390565690
86.009497869018190385759 4187.91757613526715431 86.009497869018190385759 262.50614205792385292
88.009497869018190385759 4191.13969356968118518 88.009497869018190385759 261.59207645970747080
91.009497869018218807469 4195.75605369613094808 91.009497869018218807469 260.25304701401677221
94.009497869018190385759 4200.13050397392635205 94.009497869018190385759 258.96681871031393030
97.009497869018190385759 4204.28184368147958594 97.009497869018190385759 257.72364809894401105
99.504748934509109403734 4207.57703711804151681 99.504748934509109403734 256.92623785181791618
nan nan nan nan

