Time Pressure difference Time.1 Pressure.1 difference.1
(hr) (psi) (hr) (psi)
0.000200000000006639311 0.53182084902282178 0.000200000000006639311 0.42394856346626297
0.000399999999999067768 1.06334049522097773 0.000399999999999067768 1.10969737717612515
0.000600000000005707079 1.59460487289677899 0.000600000000005707079 1.62359692975436598
0.000799999999998135536 2.12563598431222633 0.000799999999998135536 2.14676969794428452
0.001007140329434719206 2.67539075894296108 0.001007140329434719206 2.69597715107437530
0.001267914553963578328 3.36716639858036570 0.001267914553963578328 3.39226444848234188
0.001596209851982166583 4.23756576275074703 0.001596209851982166583 4.26791048542731222
0.002009509145210586212 5.33257933171114473 0.002009509145210586212 5.36886522238722552
0.002529822128138903281 6.70996813251004731 0.002529822128138903281 6.75271514146280794
0.003184857364445292660 8.44223813390230760 0.003184857364445292660 8.49155671060776740
0.004009497869020606231 10.62034558474237578 0.004009497869020606231 10.67553920824852831
0.005047658755842121536 13.35830157455032641 0.005047658755842121536 13.41721039693804052
0.006354625877804664924 16.79887647777109905 0.006354625877804664924 16.85681203750801060
0.008000000000009777068 21.12063980832954613 0.008000000000009777068 21.16867832608859956
0.010071403294347192059 26.54660594988359534 0.010071403294347192059 26.56888165326022389
0.012679145539692626699 33.35478671086039526 0.012679145539692626699 33.32423486908152910
0.015962098519750611558 41.89096979321747227 0.015962098519750611558 41.76267926460896973
0.020095091452091651263 52.58403503898055220 0.020095091452091651263 52.28493529755581193
0.025298221281346400247 65.96406705668651682 0.025298221281346400247 65.37702858973236175
0.031848573644282396344 82.68339186737701141 0.031848573644282396344 81.62287045684601594
0.040094978690191851456 103.54040963855801749 0.040094978690191851456 101.71539427222579377
0.050476587558421215363 129.50564852449366526 0.050476587558421215363 126.46373044900950333
0.063546258777947173257 161.74873484017456349 0.063546258777947173257 156.79243366078404165
0.079999999999998294697 201.66384472127776917 0.079999999999998294697 193.72674941387668923
0.100714032943542974863 250.88953228528930595 0.100714032943542974863 238.35525818833522749
0.126791455396897845276 311.31647349693525939 0.126791455396897845276 291.75801400012824161
0.159620985197506115583 385.07351107030683579 0.159620985197506115583 354.88480412159896105
0.200950914520774404082 474.47843693802053622 0.200950914520774404082 428.36523445814663091
0.252982212813464002465 581.93549414010306009 0.252982212813464002465 512.23194176457741378
0.318485736442795541734 709.75754735857572086 0.318485736442795541734 605.54453561812260887
0.400949786901819038576 859.88951368710900169 0.400949786901819038576 705.92292884586674973
0.504765875584169521062 1033.51563015673991686 0.504765875584169521062 809.04713985793193842
0.635462587779443310865 1230.55450918281644590 0.635462587779443310865 908.26872908580730837
0.799999999999997157829 1449.09285915199870942 0.799999999999997157829 994.60050431489798939
1.007140329435330272645 1684.88593665876101113 1.007140329435330272645 1057.44797031106850227
1.267914553968893187630 1931.14291270176659054 1.267914553968893187630 1086.38597967118289489
1.596209851975103788391 2178.86151220479450785 1.596209851975103788391 1073.91369882199865060
2.009509145207687197399 2417.89108391814806964 2.009509145207687197399 1018.44200281190614987
2.529822128134711078928 2638.63373337681696285 2.529822128134711078928 926.13311591580986715
3.184857364427983839050 2833.91973421036664149 3.184857364427983839050 810.24822449656312529
4.009497869018190385759 3000.35381951511499210 4.009497869018190385759 687.65816884333446524
5.009497869018190385759 3134.42530409743949349 5.009497869018190385759 576.97212599467354721
6.009497869018190385759 3226.68146947152490611 6.009497869018190385759 499.33174443912156448
7.009497869018204596614 3294.56631027719549820 7.009497869018204596614 445.31808408626710616
8.009497869018190385759 3347.21907161427043320 8.009497869018190385759 407.30252480939520865
9.009497869018204596614 3389.76346543020417812 9.009497869018204596614 380.66039845320568702
10.009497869018190385759 3425.24564914959591988 10.009497869018190385759 361.65332255969281050
11.009497869018190385759 3455.57531837284932408 11.009497869018190385759 346.23587640402183752
12.009497869018190385759 3482.00371071720974214 12.009497869018190385759 334.48010789244608532
13.009497869018190385759 3505.38598777394781791 13.009497869018190385759 325.32594287155626489
14.009497869018204596614 3526.32729811603439884 14.009497869018204596614 318.05545585846226686
15.009497869018190385759 3545.26945958444184726 15.009497869018190385759 312.17163791157702235
16.009497869018190385759 3562.54401733392933238 16.009497869018190385759 307.32654082973357390
17.009497869018190385759 3578.40591856634318901 17.009497869018190385759 303.36440639145502018
18.009497869018190385759 3593.05536510999309030 18.009497869018190385759 299.89546041774923424
19.009497869018204596614 3606.65193752135746763 19.009497869018204596614 297.02630392252029878
20.009497869018190385759 3619.32555451039843319 20.009497869018190385759 294.39469871746348417
21.009497869018204596614 3631.18355113883717422 21.009497869018204596614 292.07649206497421801
22.009497869018190385759 3642.31494120712204676 22.009497869018190385759 290.01256259415066552
23.009497869018190385759 3652.79506832960169049 23.009497869018190385759 288.18943404583046686
24.009497869018190385759 3662.68819930688505337 24.009497869018190385759 286.50021360936631254
25.009497869018190385759 3672.04919146884594738 25.009497869018190385759 284.95629404760245507
26.009497869018204596614 3680.92601519532445309 26.009497869018204596614 283.56632906704805919
27.009497869018190385759 3689.35997254041194537 27.009497869018190385759 282.24210608427165425
28.009497869018190385759 3697.38776266824834238 28.009497869018190385759 281.00718867554456892
29.009497869018190385759 3705.04135299633253453 29.009497869018190385759 279.85811257353259407
30.009497869018190385759 3712.34943931965381125 30.009497869018190385759 278.76426409171119758
31.009497869018190385759 3719.33735177410517281 31.009497869018190385759 277.72888466002768837
32.009497869018190385759 3726.02789699944878521 32.009497869018190385759 276.74349377078715406
33.009497869018190385759 3732.44155105678919426 33.009497869018190385759 275.80798487635661331
34.009497869018190385759 3738.59670472870311642 34.009497869018190385759 274.90384542021064362
35.009497869018190385759 3744.51017021932693751 35.009497869018190385759 274.03147298086003048
36.009497869018190385759 3750.19704530864146363 36.009497869018190385759 273.19127096722468195
37.009497869018190385759 3755.67117354291212905 37.009497869018190385759 272.37831422542524251
38.009497869018190385759 3760.94521382133689258 38.009497869018190385759 271.58958035860831615
39.009497869018190385759 3766.03068445081953541 39.009497869018190385759 270.81664327534093673
40.009497869018190385759 3770.93822635999731574 40.009497869018190385759 270.05389607339088798
41.009497869018190385759 3775.67763819435913319 41.009497869018190385759 269.33009373432867051
42.009497869018190385759 3780.25791453612964688 42.009497869018190385759 268.60581801145002601
43.009497869018190385759 3784.68740166676025183 43.009497869018190385759 267.91325396260128855
44.009497869018218807469 3788.97384210690051987 44.009497869018218807469 267.21569340410934501
46.009497869018190385759 3797.14572820730063540 46.009497869018190385759 265.86192369287516613
48.009497869018190385759 3804.82518510914496801 48.009497869018190385759 264.55928581799059884
50.009497869018190385759 3812.05712427027538070 50.009497869018190385759 263.26970439248395905
52.009497869018190385759 3818.88082310893787508 52.009497869018190385759 262.01664879371190864
54.009497869018190385759 3825.33095152029591191 54.009497869018190385759 260.80617737157211877
56.009497869018190385759 3831.43806997919455171 56.009497869018190385759 259.61999161583247542
58.009497869018218807469 3837.22950404732910101 58.009497869018218807469 258.40045997453790960
60.009497869018190385759 3842.72947750451703541 60.009497869018190385759 257.26036326512706864
62.009497869018190385759 3847.95988613573763359 62.009497869018190385759 256.14064597894321196
64.009497869018190385759 3852.94028673055845502 64.009497869018190385759 255.04015652270351211
66.009497869018190385759 3857.68840912687255695 66.009497869018190385759 253.94016133890545461
68.009497869018190385759 3862.22035381964360568 68.009497869018190385759 252.84806719936545960
70.009497869018190385759 3866.55054818537246319 70.009497869018190385759 251.80882100116966171
72.009497869018218807469 3870.69240629316755076 72.009497869018218807469 250.77125469832637350
74.009497869018190385759 3874.65799682243095958 74.009497869018190385759 249.76433697008101831
76.009497869018190385759 3878.45836202458485786 76.009497869018190385759 248.77844710544789564
78.009497869018190385759 3882.10379548788250759 78.009497869018190385759 247.80616721890325493
80.009497869018190385759 3885.60357923260880852 80.009497869018190385759 246.86118349544446460
82.009497869018218807469 3888.96629677710006945 82.009497869018218807469 245.94045708994818256
84.009497869018190385759 3892.20000441418096671 84.009497869018190385759 245.05106876406946981
86.009497869018190385759 3895.31198129612175762 86.009497869018190385759 244.16510156479381521
88.009497869018190385759 3898.30897262158077865 88.009497869018190385759 243.31490081186763064
91.009497869018218807469 3902.60279230251489935 91.009497869018218807469 242.06942800867062715
94.009497869018190385759 3906.67160413295323451 94.009497869018190385759 240.87306718470247802
97.009497869018190385759 3910.53289390460713548 97.009497869018190385759 239.71675565534965813
99.504748934509109403734 3913.59785548534000554 99.504748934509109403734 238.97505966129784838
nan nan nan nan

