Time Pressure difference Time.1 Pressure.1 difference.1
(hr) (psi) (hr) (psi)
0.000200000000006639311 0.20889989531256378 0.000200000000006639311 0.16652752649457281
0.000399999999999067768 0.41768147777850606 0.000399999999999067768 0.43589051904727294
0.000600000000005707079 0.62636279044928256 0.000600000000005707079 0.63775090667972745
0.000799999999998135536 0.83495247584095267 0.000799999999998135536 0.84325382501410873
0.001007140329434719206 1.05089683958479374 0.001007140329434719206 1.05898320018727410
0.001267914553963578328 1.32262717690715470 0.001267914553963578328 1.33248572233030949
0.001596209851982166583 1.66452113685514491 0.001596209851982166583 1.67644058191276280
0.002009509145210586212 2.09464383765179596 0.002009509145210586212 2.10889698093770495
0.002529822128138903281 2.63568388303602807 0.002529822128138903281 2.65247496167005448
0.003184857364445292660 3.31612170830904418 0.003184857364445292660 3.33549410698364612
0.004009497869020606231 4.17168504189410960 0.004009497869020606231 4.19336516630732437
0.005047658755842121536 5.24715758249159947 0.005047658755842121536 5.27029704167675739
0.006354625877804664924 6.59861971192573638 0.006354625877804664924 6.62137687232317784
0.008000000000009777068 8.29621375882741319 0.008000000000009777068 8.31508334874528821
0.010071403294347192059 10.42754005230169412 0.010071403294347192059 10.43628997647623891
0.012679145539692626699 13.10180197875737207 0.012679145539692626699 13.08980117705706192
0.015962098519750611558 16.45482538043440712 0.015962098519750611558 16.40443270018286626
0.020095091452091651263 20.65507479621927800 0.020095091452091651263 20.53758804332786880
0.025298221281346400247 25.91076812398797813 0.025298221281346400247 25.68017867922194597
0.031848573644282396344 32.47813984148924504 0.031848573644282396344 32.06156570370634284
0.040094978690191851456 40.67080253408148138 0.040094978690191851456 39.95393421334690487
0.050476587558421215363 50.86998087581832806 0.050476587558421215363 49.67511164742001029
0.063546258777947173257 63.53510554754900141 0.063546258777947173257 61.58826423921249926
0.079999999999998294697 79.21381068081491605 0.079999999999998294697 76.09610970717221790
0.100714032943542974863 98.54972238436246812 0.100714032943542974863 93.62624382671695855
0.126791455396897845276 122.28550054417956972 0.126791455396897845276 114.60291316749952273
0.159620985197506115583 151.25735724357906520 0.159620985197506115583 139.39919535918832594
0.200950914520774404082 186.37572405546657706 0.200950914520774404082 168.26240038966324164
0.252982212813464002465 228.58499065597160893 0.252982212813464002465 201.20534801707185579
0.318485736442795541734 278.79365318779730387 0.318485736442795541734 237.85865170602309604
0.400949786901819038576 337.76567752028853420 0.400949786901819038576 277.28741023523093645
0.504765875584169521062 405.96623344184934012 0.504765875584169521062 317.79472942776351374
0.635462587779443310865 483.36335180733482275 0.635462587779443310865 356.76909389755496704
0.799999999999997157829 569.20548927566767361 0.799999999999997157829 390.68032329114140566
1.007140329435330272645 661.82530532292491898 1.007140329435330272645 415.36688661671081491
1.267914553968893187630 758.55535381556080665 1.267914553968893187630 426.73377292248335380
1.596209851975103788391 855.85952983318236420 1.596209851975103788391 421.83464539017472816
2.009509145207687197399 949.75064485673726722 2.009509145207687197399 400.04529374927761864
2.529822128134711078928 1036.45863392422711513 2.529822128134711078928 363.78624740980950492
3.184857364427983839050 1113.16721954116133020 3.184857364427983839050 318.26651697752322434
4.009497869018190385759 1178.54273661704814913 4.009497869018190385759 270.11298963955704266
5.009497869018190385759 1231.20618361260926577 5.009497869018190385759 226.63537343452748019
6.009497869018190385759 1267.44452087222634873 6.009497869018190385759 196.13813435715101718
7.009497869018204596614 1294.10977132954008084 7.009497869018204596614 174.92150094781382563
8.009497869018190385759 1314.79184190169303292 8.009497869018190385759 159.98894167004414157
9.009497869018204596614 1331.50333305630874747 9.009497869018204596614 149.52388108255809129
10.009497869018190385759 1345.44077924342491315 10.009497869018190385759 142.05787787556010926
11.009497869018190385759 1357.35431128573577553 11.009497869018190385759 136.00188572364552897
12.009497869018190385759 1367.73541688578984576 12.009497869018190385759 131.38420513459149674
13.009497869018190385759 1376.92000458726283796 13.009497869018190385759 127.78843765377247621
14.009497869018204596614 1385.14577750723742611 14.009497869018204596614 124.93258125269801440
15.009497869018190385759 1392.58628224678409424 15.009497869018190385759 122.62141019687922494
16.009497869018190385759 1399.37175015777211229 16.009497869018190385759 120.71824999728190164
17.009497869018190385759 1405.60232482026935941 17.009497869018190385759 119.16191862950736891
18.009497869018190385759 1411.35664576308022333 18.009497869018190385759 117.79931230806737119
19.009497869018204596614 1416.69739642857689432 19.009497869018204596614 116.67230404468324423
20.009497869018190385759 1421.67560904868537364 20.009497869018190385759 115.63860622548251911
21.009497869018204596614 1426.33344497002849494 21.009497869018204596614 114.72801175009161057
22.009497869018190385759 1430.70586892486335273 22.009497869018190385759 113.91729767000283857
23.009497869018190385759 1434.82247597923310423 23.009497869018190385759 113.20117049374560736
24.009497869018190385759 1438.70851021287671756 24.009497869018190385759 112.53764259147251892
25.009497869018190385759 1442.38551965364672469 25.009497869018190385759 111.93118905469202673
26.009497869018204596614 1445.87234712680196935 26.009497869018204596614 111.38520907015501393
27.009497869018190385759 1449.18521613089728817 27.009497869018190385759 110.86505262465132660
28.009497869018190385759 1452.33854214355301337 28.009497869018190385759 110.37997552044082283
29.009497869018190385759 1455.34488200638429589 29.009497869018190385759 109.92861698897758060
30.009497869018190385759 1458.21550746358866490 30.009497869018190385759 109.49895193586777964
31.009497869018190385759 1460.96036822425730861 31.009497869018190385759 109.09225359885282103
32.009497869018190385759 1463.58842276504174151 32.009497869018190385759 108.70519082389293430
33.009497869018190385759 1466.10771410837878648 33.009497869018190385759 108.33772175894446832
34.009497869018190385759 1468.52546617668917861 34.009497869018190385759 107.98257464862734878
35.009497869018190385759 1470.84828282480589223 35.009497869018190385759 107.63990566227833767
36.009497869018190385759 1473.08209447960734906 36.009497869018190385759 107.30987325942629695
37.009497869018190385759 1475.23233890339747632 37.009497869018190385759 106.99054283346123384
38.009497869018190385759 1477.30398852762982642 38.009497869018190385759 106.68072718311529457
39.009497869018190385759 1479.30156775767704858 39.009497869018190385759 106.37711652912454952
40.009497869018190385759 1481.22925636362947444 40.009497869018190385759 106.07750847327247357
41.009497869018190385759 1483.09090326570299112 41.009497869018190385759 105.79319800832003295
42.009497869018190385759 1484.89004154705594374 42.009497869018190385759 105.50870159761181810
43.009497869018190385759 1486.62994963749110866 43.009497869018190385759 105.23666157216420913
44.009497869018218807469 1488.31366880881387260 44.009497869018218807469 104.96265891147329796
46.009497869018190385759 1491.52359589989441702 46.009497869018190385759 104.43089647404015352
48.009497869018190385759 1494.54009618528220926 48.009497869018190385759 103.91921868593995271
50.009497869018190385759 1497.38081094184531139 50.009497869018190385759 103.41266948750153176
52.009497869018190385759 1500.06116838864409146 52.009497869018190385759 102.92046767953316078
54.009497869018190385759 1502.59478690390324118 54.009497869018190385759 102.44499298945947885
56.009497869018190385759 1504.99367068040373852 56.009497869018190385759 101.97905773955234565
58.009497869018218807469 1507.26855323298832445 58.009497869018218807469 101.50002418405165372
60.009497869018190385759 1509.42894969269764260 60.009497869018190385759 101.05219276924397320
62.009497869018190385759 1511.48346075128347366 62.009497869018190385759 100.61236641739395736
64.009497869018190385759 1513.43976834017234978 64.009497869018190385759 100.18009278121843408
66.009497869018190385759 1515.30483676188578102 66.009497869018190385759 99.74801329587678822
68.009497869018190385759 1517.08499031100245702 68.009497869018190385759 99.31903735061145255
70.009497869018190385759 1518.78589607907429126 70.009497869018190385759 98.91082014286946844
72.009497869018218807469 1520.41282312924113285 72.009497869018218807469 98.50326280012508562
74.009497869018190385759 1521.97051205388152084 74.009497869018190385759 98.10774425585343295
76.009497869018190385759 1523.46330026317809825 76.009497869018190385759 97.72048548273461677
78.009497869018190385759 1524.89523109148444746 78.009497869018190385759 97.33857272604807065
80.009497869018190385759 1526.26995052798883989 80.009497869018190385759 96.96738193639522763
82.009497869018218807469 1527.59083018943988463 82.009497869018218807469 96.60571945160718599
84.009497869018190385759 1528.86103459774562907 84.009497869018190385759 96.25636660372680353
86.009497869018190385759 1530.08342301303059685 86.009497869018190385759 95.90835757865922062
88.009497869018190385759 1531.26064495777268348 88.009497869018190385759 95.57439765849574087
91.009497869018218807469 1532.94726270411752012 91.009497869018218807469 95.08517438212258810
94.009497869018190385759 1534.54549708508784533 94.009497869018190385759 94.61524235267656024
97.009497869018190385759 1536.06221654155956458 97.009497869018190385759 94.16104173629541663
99.504748934509109403734 1537.26613728766869826 99.504748934509109403734 93.86970262126096998
nan nan nan nan

