Time Pressure difference Time.1 Pressure.1 difference.1
(hr) (psi) (hr) (psi)
0.000200000000006639311 0.30627554372519311 0.000200000000006639311 0.24415191135459277
0.000399999999999067768 0.61237762479079771 0.000399999999999067768 0.63907454585416901
0.000600000000005707079 0.91833269675432661 0.000600000000005707079 0.93502921776151282
0.000799999999998135536 1.22415343071502236 0.000799999999998135536 1.23632433308841438
0.001007140329434719206 1.54075711939125148 0.001007140329434719206 1.55261281939807527
0.001267914553963578328 1.93915060199933409 0.001267914553963578328 1.95360456501017521
0.001596209851982166583 2.44041345961232414 0.001596209851982166583 2.45788898065297490
0.002009509145210586212 3.07103160261299157 0.002009509145210586212 3.09192864137480283
0.002529822128138903281 3.86426959743927600 0.002529822128138903281 3.88888759320549848
0.003184857364445292660 4.86188362015031128 0.003184857364445292660 4.89028618075689980
0.004009497869020606231 6.11625536022722027 0.004009497869020606231 6.14804135936691409
0.005047658755842121536 7.69304378628250429 0.005047658755842121536 7.72696936787668154
0.006354625877804664924 9.67447033461622041 0.006354625877804664924 9.70783541440211017
0.008000000000009777068 12.16337316035254013 0.008000000000009777068 12.19103853521221481
0.010071403294347192059 15.28818621213953577 0.010071403294347192059 15.30101478622811051
0.012679145539692626699 19.20901644694307819 0.012679145539692626699 19.19142164604382117
0.015962098519750611558 24.12500294820662106 0.015962098519750611558 24.05112045285774869
0.020095091452091651263 30.28313754983543404 0.020095091452091651263 30.11088605555639930
0.025298221281346400247 37.98869589493057930 0.025298221281346400247 37.65062053367998374
0.031848573644282396344 47.61735243692447739 0.031848573644282396344 47.00659832256546622
0.040094978690191851456 59.62890570733858198 0.040094978690191851456 58.57787964347276244
0.050476587558421215363 74.58228271833124268 0.050476587558421215363 72.83044257470345428
0.063546258777947173257 93.15107108166546368 0.063546258777947173257 90.29673800808845385
0.079999999999998294697 116.13817661569675010 0.079999999999998294697 111.56720467027641064
0.100714032943542974863 144.48724238026051125 0.100714032943542974863 137.26875588936988493
0.126791455396897845276 179.28710836756209801 0.126791455396897845276 168.02339460414270889
0.159620985197506115583 221.76377476349438211 0.159620985197506115583 204.37810315610082057
0.200950914520774404082 273.25205757932951656 0.200950914520774404082 246.69547148763371069
0.252982212813464002465 335.13656000556795789 0.252982212813464002465 294.99429510072684479
0.318485736442795541734 408.74926045063511992 0.318485736442795541734 348.73300329807375419
0.400949786901819038576 495.21023636440708060 0.400949786901819038576 406.54090424926283731
0.504765875584169521062 595.20148966773138000 0.504765875584169521062 465.93012123273700809
0.635462587779443310865 708.67614926334351821 0.635462587779443310865 523.07181894143525369
0.799999999999997157829 834.53235081054071998 0.799999999999997157829 572.79027478541854634
1.007140329435330272645 970.32554724635997445 1.007140329435330272645 608.98412061732892653
1.267914553968893187630 1112.14490121165886194 1.267914553968893187630 625.64951567917876218
1.596209851975103788391 1254.80600389884898505 1.596209851975103788391 618.46673108997731561
2.009509145207687197399 1392.46309684175025723 2.009509145207687197399 586.52059003878162002
2.529822128134711078928 1519.58875411998224081 2.529822128134711078928 533.35991652115501438
3.184857364427983839050 1632.05393143883384255 3.184857364427983839050 466.62182568816155026
4.009497869018190385759 1727.90329511981576616 4.009497869018190385759 396.02223182213936070
5.009497869018190385759 1805.11504210932343995 5.009497869018190385759 332.27815706735503909
6.009497869018190385759 1858.24535331067454536 6.009497869018190385759 287.56507347980709710
7.009497869018204596614 1897.34022250705470469 7.009497869018204596614 256.45861493544020959
8.009497869018190385759 1927.66293952120759059 8.009497869018190385759 234.56546029711648771
9.009497869018204596614 1952.16424926183913158 9.009497869018204596614 219.22226389793377166
10.009497869018190385759 1972.59843331306956316 10.009497869018190385759 208.27609186536301422
11.009497869018190385759 1990.06528507231405456 11.009497869018190385759 199.39718703705798930
12.009497869018190385759 2005.28539208753250023 12.009497869018190385759 192.62704179095484847
13.009497869018190385759 2018.75124178530950303 13.009497869018190385759 187.35515958800107228
14.009497869018204596614 2030.81133913411667891 14.009497869018204596614 183.16808725495167209
15.009497869018190385759 2041.72012695942839855 15.009497869018190385759 179.77959742012572519
16.009497869018190385759 2051.66854206398420502 16.009497869018190385759 176.98930676892325664
17.009497869018190385759 2060.80340850143102216 17.009497869018190385759 174.70751416597099137
18.009497869018190385759 2069.24002247336056826 18.009497869018190385759 172.70974872258483401
19.009497869018204596614 2077.07028639727650443 19.009497869018204596614 171.05740194598979542
20.009497869018190385759 2084.36902043791315009 20.009497869018190385759 169.54186092022933963
21.009497869018204596614 2091.19803884051998466 21.009497869018204596614 168.20680607184746691
22.009497869018190385759 2097.60860463884318960 22.009497869018190385759 167.01818941259381290
23.009497869018190385759 2103.64410820859666273 23.009497869018190385759 165.96824996692583909
24.009497869018190385759 2109.34156079019385288 24.009497869018190385759 164.99542818191986271
25.009497869018190385759 2114.73255471132279126 25.009497869018190385759 164.10628514791500265
26.009497869018204596614 2119.84471610622767912 26.009497869018204596614 163.30580453313564249
27.009497869018190385759 2124.70183082139510589 27.009497869018190385759 162.54318472458840006
28.009497869018190385759 2129.32503389971088836 28.009497869018190385759 161.83199598216026516
29.009497869018190385759 2133.73273537191016658 29.009497869018190385759 161.17024323483565240
30.009497869018190385759 2137.94146114183513419 30.009497869018190385759 160.54029606533600827
31.009497869018190385759 2141.96579883078402418 31.009497869018190385759 159.94402121266071504
32.009497869018190385759 2145.81888277902498885 32.009497869018190385759 159.37653475375537937
33.009497869018190385759 2149.51250514694584126 33.009497869018190385759 158.83777532785484254
34.009497869018190385759 2153.05725718335315833 34.009497869018190385759 158.31708155655326209
35.009497869018190385759 2156.46282103397879837 35.009497869018190385759 157.81468240525271085
36.009497869018190385759 2159.73789150794982561 36.009497869018190385759 157.33081019708717463
37.009497869018190385759 2162.89044110139548138 37.009497869018190385759 156.86262853670811523
38.009497869018190385759 2165.92776007238171587 38.009497869018190385759 156.40839682624078932
39.009497869018190385759 2168.85648181205215224 39.009497869018190385759 155.96326248094752032
40.009497869018190385759 2171.68273442954432539 40.009497869018190385759 155.52399648671024579
41.009497869018190385759 2174.41216096326161278 41.009497869018190385759 155.10715883291544515
42.009497869018190385759 2177.04994139169912160 42.009497869018190385759 154.69004855745481564
43.009497869018190385759 2179.60088233703891092 43.009497869018190385759 154.29120103010529874
44.009497869018218807469 2182.06944271571137506 44.009497869018218807469 153.88947601363415174
46.009497869018190385759 2186.77563064207606658 46.009497869018190385759 153.10984024879192589
48.009497869018190385759 2191.19822867005541411 48.009497869018190385759 152.35965130050161065
50.009497869018190385759 2195.36310130119136375 50.009497869018190385759 151.61698155936477406
52.009497869018190385759 2199.29286839450605839 52.009497869018190385759 150.89534703612829958
54.009497869018190385759 2203.00749633719669873 54.009497869018190385759 150.19823673355014648
56.009497869018190385759 2206.52458490194658225 56.009497869018190385759 149.51511254245124860
58.009497869018218807469 2209.85987087545709073 58.009497869018218807469 148.81278446107972968
60.009497869018190385759 2213.02730472873599865 60.009497869018190385759 148.15620294454890882
62.009497869018190385759 2216.03949624092547310 62.009497869018190385759 147.51135793466525570
64.009497869018190385759 2218.90770816407712118 64.009497869018190385759 146.87758622903737660
66.009497869018190385759 2221.64215110905934125 66.009497869018190385759 146.24409917483129107
68.009497869018190385759 2224.25209734840245801 68.009497869018190385759 145.61516233077696825
70.009497869018190385759 2226.74585560597370204 70.009497869018190385759 145.01666060787235324
72.009497869018218807469 2229.13115104207463446 72.009497869018218807469 144.41912633643835306
74.009497869018190385759 2231.41493400728404595 74.009497869018190385759 143.83924257431897331
76.009497869018190385759 2233.60356373246850126 76.009497869018190385759 143.27146875556312011
78.009497869018190385759 2235.70296829349081236 78.009497869018190385759 142.71153292105853438
80.009497869018190385759 2237.71849320438241193 80.009497869018190385759 142.16731694260334962
82.009497869018218807469 2239.65508171200735887 82.009497869018218807469 141.63707074976673539
84.009497869018190385759 2241.51737343414470160 84.009497869018190385759 141.12487215207755753
86.009497869018190385759 2243.30956043344713180 86.009497869018190385759 140.61464378066372660
88.009497869018190385759 2245.03552726876660017 88.009497869018190385759 140.12501330010530864
91.009497869018218807469 2247.50833735105697997 91.009497869018218807469 139.40774570765381668
94.009497869018190385759 2249.85156544745950669 94.009497869018190385759 138.71876169635447695
97.009497869018190385759 2252.07528162268454253 97.009497869018190385759 138.05284206755661103
99.504748934509109403734 2253.84039251737885934 99.504748934509109403734 137.62569946065354998
nan nan nan nan

