Time Pressure difference Time.1 Pressure.1 difference.1
(hr) (psi) (hr) (psi)
0.000200000000006639311 0.41197389713035487 0.000200000000006639311 0.32841085902316147
0.000399999999999067768 0.82371446812892624 0.000399999999999067768 0.85962472879840679
0.000600000000005707079 1.23525729590595579 0.000600000000005707079 1.25771593149986116
0.000799999999998135536 1.64661942446721743 0.000799999999998135536 1.66299061108360080
0.001007140329434719206 2.07248579918116693 0.001007140329434719206 2.08843300435338941
0.001267914553963578328 2.60836833692845227 0.001267914553963578328 2.62781048826096919
0.001596209851982166583 3.28262136551114247 0.001596209851982166583 3.30612784082397448
0.002009509145210586212 4.13087131329736579 0.002009509145210586212 4.15898010184925937
0.002529822128138903281 5.19786263785989622 0.002529822128138903281 5.23097651803456998
0.003184857364445292660 6.53976193471305489 0.003184857364445292660 6.57796646596376444
0.004009497869020606231 8.22702826987085523 0.004009497869020606231 8.26978389371364742
0.005047658755842121536 10.34798009296152266 0.005047658755842121536 10.39361368776890515
0.006354625877804664924 13.01321417292127336 0.006354625877804664924 13.05809383187240158
0.008000000000009777068 16.36105900645246791 0.008000000000009777068 16.39827194274468880
0.010071403294347192059 20.56427221469856192 0.010071403294347192059 20.58152804125792201
0.012679145539692626699 25.83821505770875859 0.012679145539692626699 25.81454813802089987
0.015962098519750611558 32.45075124826706059 0.015962098519750611558 32.35137126131681384
0.020095091452091651263 40.73411164991451017 0.020095091452091651263 40.50241466712069638
0.025298221281346400247 51.09892518475716372 0.025298221281346400247 50.64417707655324108
0.031848573644282396344 64.05051482684135067 0.031848573644282396344 63.22898415671171080
0.040094978690191851456 80.20735957916465964 0.040094978690191851456 78.79361528130166903
0.050476587558421215363 100.32127702601623298 0.050476587558421215363 97.96486161542989635
0.063546258777947173257 125.29831572126198580 0.063546258777947173257 121.45892748370593495
0.079999999999998294697 156.21847126296165698 0.079999999999998294697 150.07001715159461241
0.100714032943542974863 194.35104613649173189 0.100714032943542974863 184.64139718814701041
0.126791455396897845276 241.16064848354139372 0.126791455396897845276 226.00972915502890714
0.159620985197506115583 298.29638181502639327 0.159620985197506115583 274.91076375616819405
0.200950914520774404082 367.55371875480460631 0.200950914520774404082 331.83222387602904746
0.252982212813464002465 450.79510109444601085 0.252982212813464002465 396.79939150777124723
0.318485736442795541734 549.81218457354452767 0.318485736442795541734 469.08379519713719219
0.400949786901819038576 666.11159510973232045 0.400949786901819038576 546.84170544398125458
0.504765875584169521062 800.61069941719301823 0.504765875584169521062 626.72665763642612546
0.635462587779443310865 953.24645077542129457 0.635462587779443310865 703.58845210872391362
0.799999999999997157829 1122.53672187830875373 0.799999999999997157829 770.46517939886462045
1.007140329435330272645 1305.19333121453314561 1.007140329435330272645 819.14983615646156068
1.267914553968893187630 1495.95577744503043505 1.267914553968893187630 841.56660397063444634
1.596209851975103788391 1687.85046720089735572 1.596209851975103788391 831.90497796070314962
2.009509145207687197399 1873.01421993659323562 2.009509145207687197399 788.93394584020893490
2.529822128134711078928 2044.01204698204151100 2.529822128134711078928 717.42706162492311250
3.184857364427983839050 2195.28993495169243033 3.184857364427983839050 627.65707531423902310
4.009497869018190385759 2324.21774751170869422 4.009497869018190385759 532.69294769554073810
5.009497869018190385759 2428.07593979379134908 5.009497869018190385759 446.95023844657811196
6.009497869018190385759 2499.54198339343474800 6.009497869018190385759 386.80628090354480264
7.009497869018204596614 2552.12883190486945750 7.009497869018204596614 344.96471302457308639
8.009497869018190385759 2592.91618223640671204 8.009497869018190385759 315.51604034530618037
9.009497869018204596614 2625.87310702339800628 9.009497869018204596614 294.87777344966633564
10.009497869018190385759 2653.35930567926425283 10.009497869018190385759 280.15398226455079111
11.009497869018190385759 2676.85411986629196690 11.009497869018190385759 268.21089017212960925
12.009497869018190385759 2697.32681816121885277 12.009497869018190385759 259.10430893076807024
13.009497869018190385759 2715.43984968404402025 13.009497869018190385759 252.01305433712101944
14.009497869018204596614 2731.66199149833664706 14.009497869018204596614 246.38098693261164840
15.009497869018190385759 2746.33549686118749378 15.009497869018190385759 241.82309979065826155
16.009497869018190385759 2759.71719652628371477 16.009497869018190385759 238.06985557232883366
17.009497869018190385759 2772.00458480491352020 17.009497869018190385759 235.00059650042291537
18.009497869018190385759 2783.35274762041717622 18.009497869018190385759 232.31338483065081846
19.009497869018204596614 2793.88530371372735317 19.009497869018204596614 230.09079881321994776
20.009497869018190385759 2803.70289433904099496 20.009497869018190385759 228.05223140085197997
21.009497869018204596614 2812.88866637515593538 21.009497869018204596614 226.25643751512092194
22.009497869018190385759 2821.51157417453123344 22.009497869018190385759 224.65761891096178715
23.009497869018190385759 2829.62998250884629670 23.009497869018190385759 223.24533623268555971
24.009497869018190385759 2837.29367551941822967 24.009497869018190385759 221.93678519035415775
25.009497869018190385759 2844.54514832093673249 25.009497869018190385759 220.74079116363569142
26.009497869018204596614 2851.42156106680067751 26.009497869018204596614 219.66405772799495821
27.009497869018190385759 2857.95490830595281295 27.009497869018190385759 218.63825119204145153
28.009497869018190385759 2864.17361896836155211 28.009497869018190385759 217.68162503035142663
29.009497869018190385759 2870.10245654645495961 29.009497869018190385759 216.79149565555340473
30.009497869018190385759 2875.76365017719672323 30.009497869018190385759 215.94414824005798437
31.009497869018190385759 2881.17682179684243238 31.009497869018190385759 215.14209375072567809
32.009497869018190385759 2886.35963852069971836 32.009497869018190385759 214.37876278018725884
33.009497869018190385759 2891.32796208624495193 33.009497869018190385759 213.65407279154385378
34.009497869018190385759 2896.09603887434741409 34.009497869018190385759 212.95368307199416336
35.009497869018190385759 2900.67689242342203215 35.009497869018190385759 212.27790160489155369
36.009497869018190385759 2905.08221819683512877 36.009497869018190385759 211.62704089010364328
37.009497869018190385759 2909.32274006845318581 37.009497869018190385759 210.99728566758292914
38.009497869018190385759 2913.40826422779628047 38.009497869018190385759 210.38629464399232916
39.009497869018190385759 2917.34771330697276426 39.009497869018190385759 209.78754056540498141
40.009497869018190385759 2921.14933027887082062 40.009497869018190385759 209.19668005685210233
41.009497869018190385759 2924.82070564351806752 41.009497869018190385759 208.63598810405744644
42.009497869018190385759 2928.36880703502993128 42.009497869018190385759 208.07492944548948799
43.009497869018190385759 2931.80009988270148824 43.009497869018190385759 207.53843616821228579
44.009497869018218807469 2935.12058191379628624 44.009497869018218807469 206.99807235529596028
46.009497869018190385759 2941.45091621692290573 46.009497869018190385759 205.94937750856522030
48.009497869018190385759 2947.39979128173217759 48.009497869018190385759 204.94029183083773660
50.009497869018190385759 2953.00199767415688257 50.009497869018190385759 203.94132030403687850
52.009497869018190385759 2958.28796156326188793 52.009497869018190385759 202.97064343174866963
54.009497869018190385759 2963.28453991008791490 54.009497869018190385759 202.03295430192207505
56.009497869018190385759 2968.01540632191154145 56.009497869018190385759 201.11407801226459924
58.009497869018218807469 2972.50172848736747255 58.009497869018218807469 200.16937040281101190
60.009497869018190385759 2976.76227130631605178 60.009497869018190385759 199.28619689552095906
62.009497869018190385759 2980.81399630233227072 62.009497869018190385759 198.41881026537853927
64.009497869018190385759 2984.67205310113649830 64.009497869018190385759 197.56631843308019825
66.009497869018190385759 2988.35017608419684620 66.009497869018190385759 196.71420948788448868
68.009497869018190385759 2991.86083746592112220 68.009497869018190385759 195.86822106993096781
70.009497869018190385759 2995.21521338303500670 70.009497869018190385759 195.06317119808917937
72.009497869018218807469 2998.42369501583380043 72.009497869018218807469 194.25942265363312345
74.009497869018190385759 3001.49563134131949482 74.009497869018190385759 193.47941596273884102
76.009497869018190385759 3004.43957621622803345 76.009497869018190385759 192.71569846196666731
78.009497869018190385759 3007.26350354695114220 78.009497869018190385759 191.96252390196733018
80.009497869018190385759 3009.97460363089476232 80.009497869018190385759 191.23049425703442239
82.009497869018218807469 3012.57952567240135977 82.009497869018218807469 190.51725549221339406
84.009497869018190385759 3015.08451046168920584 84.009497869018190385759 189.82829270456082327
86.009497869018190385759 3017.49519677868602230 86.009497869018190385759 189.14198008540367368
88.009497869018190385759 3019.81680977728092330 88.009497869018190385759 188.48337386834816698
91.009497869018218807469 3023.14300812166629839 91.009497869018218807469 187.51857099263219197
94.009497869018190385759 3026.29490461003388191 94.009497869018190385759 186.59181260786812118
97.009497869018190385759 3029.28604457399160310 97.009497869018190385759 185.69607832456665619
99.504748934509109403734 3031.66031058723501701 99.504748934509109403734 185.12152508973778708
nan nan nan nan

