Time Pressure difference Time.1 Pressure.1 difference.1
(hr) (psi) (hr) (psi)
0.000200000000006639311 0.62753195643694470 0.000200000000006639311 0.50024603576457327
0.000399999999999067768 1.25470850296810199 0.000399999999999067768 1.30940817275555288
0.000600000000005707079 1.88158384063250606 0.000600000000005707079 1.91579356030483883
0.000799999999998135536 2.50818393141067064 0.000799999999998135536 2.53312105203441407
0.001007140329434719206 3.15687735875272724 0.001007140329434719206 3.18116865713627384
0.001267914553963578328 3.97315096170515769 0.001267914553963578328 4.00276587504802173
0.001596209851982166583 5.00019496887959836 0.001596209851982166583 5.03600079188136629
0.002009509145210586212 6.29227670752770418 0.002009509145210586212 6.33509292281685088
0.002529822128138903281 7.91755238170982079 0.002529822128138903281 7.96799251433952627
0.003184857364445292660 9.96157676519927904 0.003184857364445292660 10.01977114209429942
0.004009497869020606231 12.53167538481338106 0.004009497869020606231 12.59680213305068897
0.005047658755842121536 15.76237775776361083 0.005047658755842121536 15.83188832439950389
0.006354625877804664924 19.82214845733866682 0.006354625877804664924 19.89051060450866970
0.008000000000009777068 24.92169392093971680 0.008000000000009777068 24.97837786834241669
0.010071403294347192059 31.32416414117720294 0.010071403294347192059 31.35044877395650786
0.012679145539692626699 39.35760435053011008 0.012679145539692626699 39.32155413347021522
0.015962098519750611558 49.43003321453204535 0.015962098519750611558 49.27865440612701775
0.020095091452091651263 62.04751552330412068 0.020095091452091651263 61.69458718991719337
0.025298221281346400247 77.83553452385231708 0.025298221281346400247 77.14284750650735134
0.031848573644282396344 97.56381450391590704 0.031848573644282396344 96.31243243264772502
0.040094978690191851456 122.17444267210133546 0.040094978690191851456 120.02098166081103159
0.050476587558421215363 152.81261187397220169 0.050476587558421215363 149.22324375360432214
0.063546258777947173257 190.85844455319502799 0.063546258777947173257 185.01016428831167104
0.079999999999998294697 237.95702491368302844 0.079999999999998294697 228.59150087333807733
0.100714032943542974863 296.04179552912069084 0.100714032943542974863 281.25174440376326856
0.126791455396897845276 367.34369486179838304 0.126791455396897845276 344.26532481392285945
0.159620985197506115583 454.37469068389884796 0.159620985197506115583 418.75296135788045149
0.200950914520774404082 559.86970493156093198 0.200950914520774404082 505.45756929803218327
0.252982212813464002465 686.66566914184306825 0.252982212813464002465 604.41765898355447462
0.318485736442795541734 837.49169124939908215 0.318485736442795541734 714.52359914877058600
0.400949786901819038576 1014.64271255098628899 0.400949786901819038576 832.96696142376151784
0.504765875584169521062 1219.51609567790592337 0.504765875584169521062 954.65030274316222858
0.635462587779443310865 1452.01580582761130245 0.635462587779443310865 1071.72867250500576120
0.799999999999997157829 1709.88421878029271284 0.799999999999997157829 1173.59746518534120696
1.007140329435330272645 1988.11267017324848894 1.007140329435330272645 1247.75550800398377760
1.267914553968893187630 2278.68819433041016964 1.267914553968893187630 1281.90145332092606623
1.596209851975103788391 2570.98838842318536990 1.596209851975103788391 1267.18455228761672515
2.009509145207687197399 2853.03580168119515292 2.009509145207687197399 1201.72968719902519297
2.529822128134711078928 3113.50521903931166889 2.529822128134711078928 1092.80808982867074519
3.184857364427983839050 3343.93658778500184781 3.184857364427983839050 956.06754502411365593
4.009497869018190385759 3540.32359924005731955 4.009497869018190385759 811.41511628775288045
5.009497869018190385759 3698.52375475660301163 5.009497869018190385759 680.80905007822207153
6.009497869018190385759 3807.38314238111070154 6.009497869018190385759 589.19582990156118285
7.009497869018204596614 3887.48512981064959604 7.009497869018204596614 525.46140125359227113
8.009497869018190385759 3949.61374021464780526 8.009497869018190385759 480.60423115224415369
9.009497869018204596614 3999.81479332452909148 9.009497869018204596614 449.16735592130999066
10.009497869018190385759 4041.68265955992956151 10.009497869018190385759 426.73960126761875244
11.009497869018190385759 4077.47071995794749455 11.009497869018190385759 408.54749735310241476
12.009497869018190385759 4108.65539574456306582 12.009497869018190385759 394.67605845211949145
13.009497869018190385759 4136.24575083185754920 13.009497869018190385759 383.87443024280656800
14.009497869018204596614 4160.95584159544614522 14.009497869018204596614 375.29548312563468926
15.009497869018190385759 4183.30699925926364813 15.009497869018190385759 368.35276210536630970
16.009497869018190385759 4203.69043672892439645 16.009497869018190385759 362.63569919502208450
17.009497869018190385759 4222.40698372304086661 17.009497869018190385759 357.96050456832091413
18.009497869018190385759 4239.69287213291772787 18.009497869018190385759 353.86725689355699842
19.009497869018204596614 4255.73640202050592052 19.009497869018204596614 350.48174203064212406
20.009497869018190385759 4270.69087339724592312 20.009497869018190385759 347.37653025503516346
21.009497869018204596614 4284.68293827649995364 21.009497869018204596614 344.64111896242656030
22.009497869018190385759 4297.81763015676096984 22.009497869018190385759 342.20574678558625692
23.009497869018190385759 4310.18385214478803391 23.009497869018190385759 340.05451216049476670
24.009497869018190385759 4321.85743705381992186 24.009497869018190385759 338.06128491621620924
25.009497869018190385759 4332.90311481613389333 25.009497869018190385759 336.23950815632588274
26.009497869018204596614 4343.37748897852088703 26.009497869018204596614 334.59939298365293325
27.009497869018190385759 4353.32929467209760332 27.009497869018190385759 333.03685131070557190
28.009497869018190385759 4362.80183576190847816 28.009497869018190385759 331.57968741996961626
29.009497869018190385759 4371.83283280005434790 29.009497869018190385759 330.22381358441873545
30.009497869018190385759 4380.45614592647780228 30.009497869018190385759 328.93310661212871082
31.009497869018190385759 4388.70166390872509510 31.009497869018190385759 327.71139128898414583
32.009497869018190385759 4396.59629786789355421 32.009497869018190385759 326.54866088133570656
33.009497869018190385759 4404.16420891520920122 33.009497869018190385759 325.44478966631123740
34.009497869018190385759 4411.42709759850094997 34.009497869018190385759 324.37793340663353092
35.009497869018190385759 4418.40480179244514147 35.009497869018190385759 323.34856123250153814
36.009497869018190385759 4425.11513640487646626 36.009497869018190385759 322.35714915381441870
37.009497869018190385759 4431.57443638709810330 37.009497869018190385759 321.39788564314653740
38.009497869018190385759 4437.79763884395651985 38.009497869018190385759 320.46720436680851662
39.009497869018190385759 4443.79833501708526455 39.009497869018190385759 319.55516280063704926
40.009497869018190385759 4449.58908086922929215 40.009497869018190385759 318.65514497548787176
41.009497869018190385759 4455.18143849537864298 41.009497869018190385759 317.80108086961479330
42.009497869018190385759 4460.58602122103548027 42.009497869018190385759 316.94645818565464879
43.009497869018190385759 4465.81267739708528097 43.009497869018190385759 316.12925428450921572
44.009497869018218807469 4470.87054295556026773 44.009497869018218807469 315.30615465836996236
46.009497869018190385759 4480.51311278294997464 46.009497869018190385759 313.70874877062260566
48.009497869018190385759 4489.57463156853646069 48.009497869018190385759 312.17167684939727224
50.009497869018190385759 4498.10809342689753976 50.009497869018190385759 310.65001112978546871
52.009497869018190385759 4506.15984448222116043 52.009497869018190385759 309.17144474250198982
54.009497869018190385759 4513.77079412566945393 54.009497869018190385759 307.74312635080656264
56.009497869018190385759 4520.97700276105206285 56.009497869018190385759 306.34346428534848883
58.009497869018218807469 4527.81071369590881659 58.009497869018218807469 304.90445511862526473
60.009497869018190385759 4534.30051023224677920 60.009497869018190385759 303.55917668529860975
62.009497869018190385759 4540.47222871102712816 62.009497869018190385759 302.23794533352605640
64.009497869018190385759 4546.34894553183312382 64.009497869018190385759 300.93940221927766743
66.009497869018190385759 4551.95158134845405584 66.009497869018190385759 299.64144233104019577
68.009497869018190385759 4557.29913424101960118 68.009497869018190385759 298.35280542773324441
70.009497869018190385759 4562.40862806223867665 70.009497869018190385759 297.12652744112978098
72.009497869018218807469 4567.29589099381610140 72.009497869018218807469 295.90223167846335173
74.009497869018190385759 4571.97516369970708183 74.009497869018190385759 294.71410027455573299
76.009497869018190385759 4576.45947569098098029 76.009497869018190385759 293.55078109156136179
78.009497869018190385759 4580.76097307959844329 78.009497869018190385759 292.40352125673399541
80.009497869018190385759 4584.89060835897907964 80.009497869018190385759 291.28847004000800780
82.009497869018218807469 4588.85850981210205646 82.009497869018218807469 290.20204169925028737
84.009497869018190385759 4592.67418361235104385 84.009497869018190385759 289.15259131159371009
86.009497869018190385759 4596.34621893157418526 86.009497869018190385759 288.10717774625123866
88.009497869018190385759 4599.88257489307034120 88.009497869018190385759 287.10396746815052893
91.009497869018218807469 4604.94914772472020559 91.009497869018218807469 285.63434854231246618
94.009497869018190385759 4609.75021833528353454 94.009497869018190385759 284.22268021481323785
97.009497869018190385759 4614.30641941169687925 97.009497869018190385759 282.85826880146112217
99.504748934509109403734 4617.92297814702124015 99.504748934509109403734 281.98309074275209696
nan nan nan nan

