Time Pressure difference Time.1 Pressure.1 difference.1
(hr) (psi) (hr) (psi)
0.000200000000006639311 0.77567610530402176 0.000200000000006639311 0.61834125375674032
0.000399999999999067768 1.55091289756799866 0.000399999999999067768 1.61852575200023252
0.000600000000005707079 2.32577737330171841 0.000600000000005707079 2.36806312759165749
0.000799999999998135536 3.10030162344130655 0.000799999999998135536 3.13112575662609283
0.001007140329434719206 3.90213487845827789 0.001007140329434719206 3.93216072738860367
0.001267914553963578328 4.91110967680266075 0.001267914553963578328 4.94771590921055182
0.001596209851982166583 6.18061234880077670 0.001596209851982166583 6.22487100534938254
0.002009509145210586212 7.77772134140029259 0.002009509145210586212 7.83064536348183715
0.002529822128138903281 9.78668278481903542 0.002529822128138903281 9.84903053496609893
0.003184857364445292660 12.31324873364154904 0.003184857364445292660 12.38518130561258346
0.004009497869020606231 15.49008151014067991 0.004009497869020606231 15.57058300796185968
0.005047658755842121536 19.48346958917199245 0.005047658755842121536 19.56938981212246276
0.006354625877804664924 24.50164769527803443 0.006354625877804664924 24.58614838647491041
0.008000000000009777068 30.80506463437110654 0.008000000000009777068 30.87513020330919744
0.010071403294347192059 38.71899334161425799 0.010071403294347192059 38.75148309990380113
0.012679145539692626699 48.64892208845366639 0.012679145539692626699 48.60436134269793484
0.015962098519750611558 61.09919224926242265 0.015962098519750611558 60.91207679908538353
0.020095091452091651263 76.69533749034408743 0.020095091452091651263 76.25909185809392454
0.025298221281346400247 96.21050155998723596 0.025298221281346400247 95.35428896029821999
0.031848573644282396344 120.59612084568915691 0.031848573644282396344 119.04931966475820104
0.040094978690191851456 151.01668510662921108 0.040094978690191851456 148.35484735792556421
0.050476587558421215363 188.88773775403458899 0.050476587558421215363 184.45101217289024476
0.063546258777947173257 235.91521263073974524 0.063546258777947173257 228.68630386831100054
0.079999999999998294697 294.13255599410155128 0.079999999999998294697 282.55607269754784738
0.100714032943542974863 365.92964646305102860 0.100714032943542974863 347.64804480677372567
0.126791455396897845276 454.06408967002136023 0.126791455396897845276 425.53751024744843789
0.159620985197506115583 561.64086434667603953 0.159620985197506115583 517.60976125403794867
0.200950914520774404082 692.04053713025837169 0.200950914520774404082 624.78309626759414641
0.252982212813464002465 848.76976610105793952 0.252982212813464002465 747.10511693988439674
0.318485736442795541734 1035.20193135867384626 0.318485736442795541734 883.20423661359973266
0.400949786901819038576 1254.17375079246585301 0.400949786901819038576 1029.60902923998105507
0.504765875584169521062 1507.41246839762379750 0.504765875584169521062 1180.01867660030120533
0.635462587779443310865 1794.79937802564177218 0.635462587779443310865 1324.73623710167839818
0.799999999999997157829 2113.54388846582560291 0.799999999999997157829 1450.65363070654916555
1.007140329435330272645 2457.45491856958551580 1.007140329435330272645 1542.31847938953978883
1.267914553968893187630 2816.62784763387526255 1.267914553968893187630 1584.52540383965924775
1.596209851975103788391 3177.93259683078031230 1.596209851975103788391 1566.33422113005144638
2.009509145207687197399 3526.56414743617187924 2.009509145207687197399 1485.42714651126220815
2.529822128134711078928 3848.52369249952016617 2.529822128134711078928 1350.79196249379469918
3.184857364427983839050 4133.35397853530776047 3.184857364427983839050 1181.77049331893090311
4.009497869018190385759 4376.10291046648944757 4.009497869018190385759 1002.96934798433130709
5.009497869018190385759 4571.65005229861344560 5.009497869018190385759 841.53054996406217469
6.009497869018190385759 4706.20834044986077060 6.009497869018190385759 728.28980566081577308
7.009497869018204596614 4805.22034613199775777 7.009497869018204596614 649.50931826040846317
8.009497869018190385759 4882.01592291784072586 8.009497869018190385759 594.06252444813196689
9.009497869018204596614 4944.06815302183258609 9.009497869018204596614 555.20421182846268948
10.009497869018190385759 4995.81994523853427381 10.009497869018190385759 527.48184135466931366
11.009497869018190385759 5040.05664588966465089 11.009497869018190385759 504.99504977863591648
12.009497869018190385759 5078.60322126516348362 12.009497869018190385759 487.84892105752703628
13.009497869018190385759 5112.70694930409899825 13.009497869018190385759 474.49730634787226791
14.009497869018204596614 5143.25045672010037379 14.009497869018204596614 463.89309054786673414
15.009497869018190385759 5170.87814762550806336 15.009497869018190385759 455.31137172705757621
16.009497869018190385759 5196.07359022726450348 16.009497869018190385759 448.24465736042520803
17.009497869018190385759 5219.20863240036305797 17.009497869018190385759 442.46576957251346585
18.009497869018190385759 5240.57527430753270892 18.009497869018190385759 437.40621143872027687
19.009497869018204596614 5260.40626881049320218 19.009497869018204596614 433.22146362408284404
20.009497869018190385759 5278.89110610906209331 20.009497869018190385759 429.38319124362431012
21.009497869018204596614 5296.18633749827313295 21.009497869018204596614 426.00201972543976581
22.009497869018190385759 5312.42179218315777689 22.009497869018190385759 422.99171883841694353
23.009497869018190385759 5327.70736100655449263 23.009497869018190385759 420.33263306841001850
24.009497869018190385759 5342.13677895777254889 24.009497869018190385759 417.86885615638396985
25.009497869018190385759 5355.79005704063274607 25.009497869018190385759 415.61700477678476773
26.009497869018204596614 5368.73716144294576225 26.009497869018204596614 413.58970061109357630
27.009497869018190385759 5381.03833240635958646 27.009497869018190385759 411.65828305249021923
28.009497869018190385759 5392.74709672426797624 28.009497869018190385759 409.85712025916672019
29.009497869018190385759 5403.91007980059839610 29.009497869018190385759 408.18115949692077038
30.009497869018190385759 5414.56913528312634298 30.009497869018190385759 406.58574981764451195
31.009497869018190385759 5424.76120790839831898 31.009497869018190385759 405.07561894076025055
32.009497869018190385759 5434.51956182079175051 32.009497869018190385759 403.63839780027177540
33.009497869018190385759 5443.87406194824325212 33.009497869018190385759 402.27393099337143667
34.009497869018190385759 5452.85153177957909065 34.009497869018190385759 400.95521742040114077
35.009497869018190385759 5461.47649240127066150 35.009497869018190385759 399.68283696112916914
36.009497869018190385759 5469.77096436252577405 36.009497869018190385759 398.45737799914468269
37.009497869018190385759 5477.75513887635952415 37.009497869018190385759 397.27165705492382131
38.009497869018190385759 5485.44747931374968175 38.009497869018190385759 396.12126587515325582
39.009497869018190385759 5492.86478545878435398 39.009497869018190385759 394.99391476153016356
40.009497869018190385759 5500.02257741395533230 40.009497869018190385759 393.88142588482048723
41.009497869018190385759 5506.93514678739120427 41.009497869018190385759 392.82573921814451978
42.009497869018190385759 5513.61561243767391716 42.009497869018190385759 391.76936210746703182
43.009497869018190385759 5520.07614765793550760 43.009497869018190385759 390.75923739146230673
44.009497869018218807469 5526.32804513870360097 44.009497869018218807469 389.74182512148655633
46.009497869018190385759 5538.24697760438812111 46.009497869018190385759 387.76731280400565538
48.009497869018190385759 5549.44768782742266922 48.009497869018190385759 385.86737775018337970
50.009497869018190385759 5559.99568046932199650 50.009497869018190385759 383.98648590578261519
52.009497869018190385759 5569.94824278173837229 52.009497869018190385759 382.15886803715102360
54.009497869018190385759 5579.35594181050964835 54.009497869018190385759 380.39336042301289353
56.009497869018190385759 5588.26335089297208469 56.009497869018190385759 378.66327415642541609
58.009497869018218807469 5596.71032515197293833 58.009497869018218807469 376.88455195034322287
60.009497869018190385759 5604.73219567168962385 60.009497869018190385759 375.22168789217278118
62.009497869018190385759 5612.36089808843098581 62.009497869018190385759 373.58854781279353574
64.009497869018190385759 5619.62495654597842076 64.009497869018190385759 371.98345208006213625
66.009497869018190385759 5626.55023052620526869 66.009497869018190385759 370.37907725799664149
68.009497869018190385759 5633.16020306714835897 68.009497869018190385759 368.78622633772857853
70.009497869018190385759 5639.47591691512843681 70.009497869018190385759 367.27045566993757575
72.009497869018218807469 5645.51693687829811097 72.009497869018218807469 365.75713517815364639
74.009497869018190385759 5651.30086547496921412 74.009497869018190385759 364.28851651974258630
76.009497869018190385759 5656.84380814853375341 76.009497869018190385759 362.85056760919786711
78.009497869018190385759 5662.16077839547233452 78.009497869018190385759 361.43246924572429180
80.009497869018190385759 5667.26531431109833647 80.009497869018190385759 360.05418312637590361
82.009497869018218807469 5672.16993520541109319 82.009497869018218807469 358.71127700756136392
84.009497869018190385759 5676.88639141473686323 84.009497869018190385759 357.41407838515289086
86.009497869018190385759 5681.42529979340451973 86.009497869018190385759 356.12186957494179751
88.009497869018190385759 5685.79649840894126100 88.009497869018190385759 354.88182716222320323
91.009497869018218807469 5692.05915872604691685 91.009497869018218807469 353.06526902047107797
94.009497869018190385759 5697.99363857889238716 94.009497869018190385759 351.32034212228904835
97.009497869018190385759 5703.62544150092980999 97.009497869018190385759 349.63382827979017975
99.504748934509109403734 5708.09577670162252616 99.504748934509109403734 348.55204319926389189
nan nan nan nan

