Time Pressure difference Time.1 Pressure.1 difference.1
(hr) (psi) (hr) (psi)
0.000200000000006639311 0.73988847383613232 0.000200000000006639311 0.58981263367998094
0.000399999999999067768 1.47935790336689976 0.000399999999999067768 1.54385128060966403
0.000600000000005707079 2.21847219406140317 0.000600000000005707079 2.25880699616843739
0.000799999999998135536 2.95726195626536592 0.000799999999998135536 2.98666394596630536
0.001007140329434719206 3.72210075852940880 0.001007140329434719206 3.75074129468719830
0.001267914553963578328 4.68452414450382637 0.001267914553963578328 4.71944146275555898
0.001596209851982166583 5.89545534129172921 0.001596209851982166583 5.93767202119699622
0.002009509145210586212 7.41887797479062261 0.002009509145210586212 7.46936022332119443
0.002529822128138903281 9.33515128294433794 0.002529822128138903281 9.39462247380349957
0.003184857364445292660 11.74514820193920350 0.003184857364445292660 11.81376199644805247
0.004009497869020606231 14.77541036750543313 0.004009497869020606231 14.85219774042713858
0.005047658755842121536 18.58455414675311701 0.005047658755842121536 18.66651023924556796
0.006354625877804664924 23.37120686813537773 0.006354625877804664924 23.45180892229205227
0.008000000000009777068 29.38380092269948207 0.008000000000009777068 29.45063385272733214
0.010071403294347192059 36.93260201791317598 0.010071403294347192059 36.96359278520866809
0.012679145539692626699 46.40439027535977345 0.012679145539692626699 46.36188544383956156
0.015962098519750611558 58.28023810042305541 0.015962098519750611558 58.10175565921342411
0.020095091452091651263 73.15681870055352931 0.020095091452091651263 72.74070028095009377
0.025298221281346400247 91.77160502878609805 0.025298221281346400247 90.95489580011278008
0.031848573644282396344 115.03213672941808454 0.031848573644282396344 113.55670083902364809
0.040094978690191851456 144.04917710278260756 0.040094978690191851456 141.51014946480239587
0.050476587558421215363 180.17296015379477581 0.050476587558421215363 175.94093328508523655
0.063546258777947173257 225.03071247717554115 0.063546258777947173257 218.13532632932236766
0.079999999999998294697 280.56206253085440494 0.079999999999998294697 269.51968736922748349
0.100714032943542974863 349.04662629361848758 0.100714032943542974863 331.60848909143976471
0.126791455396897845276 433.11478081185515521 0.126791455396897845276 405.90434185620341623
0.159620985197506115583 535.72824936072424862 0.159620985197506115583 493.72862420047175647
0.200950914520774404082 660.11162822832579877 0.200950914520774404082 595.95726671876741420
0.252982212813464002465 809.60978762214642757 0.252982212813464002465 712.63567484931036233
0.318485736442795541734 987.44046886036585420 0.318485736442795541734 842.45554329344429334
0.400949786901819038576 1196.30951121727684949 0.400949786901819038576 982.10560836302897769
0.504765875584169521062 1437.86446824623135399 0.504765875584169521062 1125.57575482582387849
0.635462587779443310865 1711.99211058454443446 0.635462587779443310865 1263.61643217102141534
0.799999999999997157829 2016.03059747437691840 0.799999999999997157829 1383.72433229412240507
1.007140329435330272645 2344.07448777721219813 1.007140329435330272645 1471.16000877392798429
1.267914553968893187630 2686.67613363359987488 1.267914553968893187630 1511.41961804019001647
1.596209851975103788391 3031.31124311433904950 1.596209851975103788391 1494.06772809508106548
2.009509145207687197399 3363.85786166390198559 2.009509145207687197399 1416.89349060999143148
2.529822128134711078928 3670.96305003441375447 2.529822128134711078928 1288.47001572637714162
3.184857364427983839050 3942.65202459000920499 3.184857364427983839050 1127.24674738254248041
4.009497869018190385759 4174.20116674325072381 4.009497869018190385759 956.69501111380952807
5.009497869018190385759 4360.72628379127309017 5.009497869018190385759 802.70456965456139642
6.009497869018190385759 4489.07641057932050899 6.009497869018190385759 694.68845196616439353
7.009497869018204596614 4583.52026578470486129 7.009497869018204596614 619.54268662393030809
8.009497869018190385759 4656.77269900639475964 8.009497869018190385759 566.65406033732767810
9.009497869018204596614 4715.96200433091053128 9.009497869018204596614 529.58856686212811837
10.009497869018190385759 4765.32610656336601096 10.009497869018190385759 503.14523279431449510
11.009497869018190385759 4807.52184355784538639 11.009497869018190385759 481.69592194550148179
12.009497869018190385759 4844.28998251580560463 12.009497869018190385759 465.34086997869258084
13.009497869018190385759 4876.82025529114162055 13.009497869018190385759 452.60526324383954488
14.009497869018204596614 4905.95456654953795805 14.009497869018204596614 442.49029774361969203
15.009497869018190385759 4932.30758931231412134 15.009497869018190385759 434.30451659372766926
16.009497869018190385759 4956.34058123609247559 16.009497869018190385759 427.56384162383903913
17.009497869018190385759 4978.40823412438021478 17.009497869018190385759 422.05157634116358167
18.009497869018190385759 4998.78907602939580102 18.009497869018190385759 417.22545275646177743
19.009497869018204596614 5017.70512121515912440 19.009497869018204596614 413.23377807061115163
20.009497869018190385759 5035.33711730789400463 20.009497869018190385759 409.57259336435839714
21.009497869018204596614 5051.83439274245120032 21.009497869018204596614 406.34742010291409997
22.009497869018190385759 5067.32078674981494260 22.009497869018190385759 403.47600648857581973
23.009497869018190385759 5081.90112010174561874 23.009497869018190385759 400.93960386031807275
24.009497869018190385759 5095.66480310457063752 24.009497869018190385759 398.58949905904012212
25.009497869018190385759 5108.68815526729849807 25.009497869018190385759 396.44154211004467925
26.009497869018204596614 5121.03791472401189822 26.009497869018204596614 394.50777236401518167
27.009497869018190385759 5132.77154239190349472 27.009497869018190385759 392.66546527217144558
28.009497869018190385759 5143.94009548055237246 28.009497869018190385759 390.94740333733818716
29.009497869018190385759 5154.58804822181537020 29.009497869018190385759 389.34876694502423788
30.009497869018190385759 5164.75532324753112334 30.009497869018190385759 387.82696522305360531
31.009497869018190385759 5174.47716076240885741 31.009497869018190385759 386.38650776645482665
32.009497869018190385759 5183.78529019172128756 32.009497869018190385759 385.01559618502318472
33.009497869018190385759 5192.70819857509468420 33.009497869018190385759 383.71408224582324920
34.009497869018190385759 5201.27147183695979038 34.009497869018190385759 382.45621060808645097
35.009497869018190385759 5209.49849972610536497 35.009497869018190385759 381.24253439747189987
36.009497869018190385759 5217.41028682219439361 36.009497869018190385759 380.07361485111545107
37.009497869018190385759 5225.02609276940347627 37.009497869018190385759 378.94259991612364047
38.009497869018190385759 5232.36352908790104266 38.009497869018190385759 377.84528472426097778
39.009497869018190385759 5239.43862046444155567 39.009497869018190385759 376.76994659120208553
40.009497869018190385759 5246.26617094528592133 40.009497869018190385759 375.70878499099296732
41.009497869018190385759 5252.85981276179245469 41.009497869018190385759 374.70180489799406587
42.009497869018190385759 5259.23205950331703207 42.009497869018190385759 373.69416621624270647
43.009497869018190385759 5265.39452281964076974 43.009497869018190385759 372.73064596674890936
44.009497869018218807469 5271.35797438659574254 44.009497869018218807469 371.76017439163257450
46.009497869018190385759 5282.72699902392832882 46.009497869018190385759 369.87676081841311770
48.009497869018190385759 5293.41093828173688962 48.009497869018190385759 368.06448371235302375
50.009497869018190385759 5303.47227461075908650 50.009497869018190385759 366.27037121270461739
52.009497869018190385759 5312.96565218129308050 52.009497869018190385759 364.52707476934250508
54.009497869018190385759 5321.93930501023987745 54.009497869018190385759 362.84302297860347153
56.009497869018190385759 5330.43574993975562393 56.009497869018190385759 361.19275828869336920
58.009497869018218807469 5338.49300328337267274 58.009497869018218807469 359.49610159211920291
60.009497869018190385759 5346.14476604306037189 60.009497869018190385759 357.90995765680435170
62.009497869018190385759 5353.42150042984485481 62.009497869018190385759 356.35216631499298501
64.009497869018190385759 5360.35041455941518507 64.009497869018190385759 354.82112542829958102
66.009497869018190385759 5366.95617482596117043 66.009497869018190385759 353.29077219137235488
68.009497869018190385759 5373.26118082263474207 68.009497869018190385759 351.77141117407808224
70.009497869018190385759 5379.28550443943095161 70.009497869018190385759 350.32557413151778292
72.009497869018218807469 5385.04780781631598074 72.009497869018218807469 348.88207422036327898
74.009497869018190385759 5390.56488133824859688 74.009497869018190385759 347.48121371893904552
76.009497869018190385759 5395.85208738631627057 76.009497869018190385759 346.10960794482497249
78.009497869018190385759 5400.92374677422139939 78.009497869018190385759 344.75693686636145685
80.009497869018190385759 5405.79277298558645271 80.009497869018190385759 343.44224120101739572
82.009497869018218807469 5410.47110772275755153 82.009497869018218807469 342.16129319712666756
84.009497869018190385759 5414.96995919281198439 84.009497869018190385759 340.92394386738300227
86.009497869018190385759 5419.29945441667041450 86.009497869018190385759 339.69135413317951588
88.009497869018190385759 5423.46897755960162613 88.009497869018190385759 338.50852397770000834
91.009497869018218807469 5429.44269539426568372 91.009497869018218807469 336.77577699484851337
94.009497869018190385759 5435.10337413802062656 94.009497869018190385759 335.11135638059550956
97.009497869018190385759 5440.47534065914896928 97.009497869018190385759 333.50265379907017405
99.504748934509109403734 5444.73942648899446795 99.504748934509109403734 332.47077940358968817
nan nan nan nan

