Time Pressure difference Time.1 Pressure.1 difference.1
(hr) (psi) (hr) (psi)
0.000200000000006639311 0.88387127020694323 0.000200000000006639311 0.70459057026787375
0.000399999999999067768 1.76724194980387828 0.000399999999999067768 1.84428578178567260
0.000600000000005707079 2.65018838030732296 0.000600000000005707079 2.69837236212697462
0.000799999999998135536 3.53274712885693942 0.000799999999998135536 3.56787076559754324
0.001007140329434719206 4.44642407824323094 0.001007140329434719206 4.48063808206727110
0.001267914553963578328 5.59613570468286081 0.001267914553963578328 5.63784795663262450
0.001596209851982166583 7.04271492964208701 0.001596209851982166583 7.09314700394961761
0.002009509145210586212 8.86259663580162105 0.002009509145210586212 8.92290276396749960
0.002529822128138903281 11.15177802304486931 0.002529822128138903281 11.22282234778325893
0.003184857364445292660 14.03076196902073569 0.003184857364445292660 14.11272805424952992
0.004009497869020606231 17.65071519717746895 0.004009497869020606231 17.74244544469473439
0.005047658755842121536 22.20112092671744364 0.005047658755842121536 22.29902573012237710
0.006354625877804664924 27.91925949826746134 0.006354625877804664924 28.01554676656260767
0.008000000000009777068 35.10190841384346783 0.008000000000009777068 35.18174707716134009
0.010071403294347192059 44.11971129698964234 0.010071403294347192059 44.15673288851699851
0.012679145539692626699 55.43471594199333907 0.012679145539692626699 55.38393964157211258
0.015962098519750611558 69.62161176900931991 0.015962098519750611558 69.40839652427969497
0.020095091452091651263 87.39318499436204490 0.020095091452091651263 86.89608964945895764
0.025298221281346400247 109.63042130547900399 0.025298221281346400247 108.65477990969604605
0.031848573644282396344 137.41746817395051039 0.031848573644282396344 135.65491146349057772
0.040094978690191851456 172.08124418802600530 0.040094978690191851456 169.04812005806539332
0.050476587558421215363 215.23473980127116079 0.050476587558421215363 210.17915764764958908
0.063546258777947173257 268.82184100198026044 0.063546258777947173257 260.58460805595092324
0.079999999999998294697 335.15962925508142689 0.079999999999998294697 321.96840043433030587
0.100714032943542974863 416.97133534738219396 0.100714032943542974863 396.13972487638812936
0.126791455396897845276 517.39920947377970606 0.126791455396897845276 484.89360073260746731
0.159620985197506115583 639.98132825769312149 0.159620985197506115583 589.80854769505185686
0.200950914520774404082 788.56979660121714915 0.200950914520774404082 711.93095304311702876
0.252982212813464002465 967.16039871172051789 0.252982212813464002465 851.31505814394563458
0.318485736442795541734 1179.59705053960465193 0.318485736442795541734 1006.39796060476714956
0.400949786901819038576 1429.11214950815292468 0.400949786901819038576 1173.22402258890542726
0.504765875584169521062 1717.67386420415937209 0.504765875584169521062 1344.61355638360510056
0.635462587779443310865 2045.14693075454010796 0.635462587779443310865 1509.51704270598952462
0.799999999999997157829 2408.35151239346214425 0.799999999999997157829 1652.99802125574592537
1.007140329435330272645 2800.23296515118045136 1.007140329435330272645 1757.44873939022659215
1.267914553968893187630 3209.50512251842883416 1.267914553968893187630 1805.54289579154306011
1.596209851975103788391 3621.20645690374385595 1.596209851975103788391 1784.81431635205399289
2.009509145207687197399 4018.46687186396411562 2.009509145207687197399 1692.62192016626636359
2.529822128134711078928 4385.33493716147040686 2.529822128134711078928 1539.20715039528954549
3.184857364427983839050 4709.89476953272151150 3.184857364427983839050 1346.60972521964026782
4.009497869018190385759 4986.50353102512053738 4.009497869018190385759 1142.86850596497833976
5.009497869018190385759 5209.32656173940631561 5.009497869018190385759 958.91142066720396997
6.009497869018190385759 5362.65370982591502980 6.009497869018190385759 829.87529357487801462
7.009497869018204596614 5475.47640299590239010 7.009497869018204596614 740.10611157999323950
8.009497869018190385759 5562.98380916174482991 8.009497869018190385759 676.92532292265684646
9.009497869018204596614 5633.69139325019841635 9.009497869018204596614 632.64685940110234696
10.009497869018190385759 5692.66178309369479393 10.009497869018190385759 601.05763467667259192
11.009497869018190385759 5743.06883898586238502 11.009497869018190385759 575.43427346020530422
12.009497869018190385759 5786.99208260043360497 12.009497869018190385759 555.89651734237520486
13.009497869018190385759 5825.85276841304039408 13.009497869018190385759 540.68255294145967582
14.009497869018204596614 5860.65663630552262475 14.009497869018204596614 528.59920832814850655
15.009497869018190385759 5892.13797508400239167 15.009497869018190385759 518.82046864177596035
16.009497869018190385759 5920.84780345638955623 16.009497869018190385759 510.76805377336006586
17.009497869018190385759 5947.20983649054323905 17.009497869018190385759 504.18309794636184051
18.009497869018190385759 5971.55680398562253686 18.009497869018190385759 498.41780745485084481
19.009497869018204596614 5994.15392433126999094 19.009497869018204596614 493.64935018109002840
20.009497869018190385759 6015.21711876376048167 20.009497869018190385759 489.27569646000972625
21.009497869018204596614 6034.92477513215271756 21.009497869018204596614 485.42290230516846350
22.009497869018190385759 6053.42483186535810091 22.009497869018190385759 481.99270966351804191
23.009497869018190385759 6070.84250792806960817 23.009497869018190385759 478.96272137194358720
24.009497869018190385759 6087.28461293256896170 24.009497869018190385759 476.15528459021436447
25.009497869018190385759 6102.84231821582852717 25.009497869018190385759 473.58933376925472203
26.009497869018204596614 6117.59534919786347018 26.009497869018204596614 471.27925112551645270
27.009497869018190385759 6131.61234872913519212 27.009497869018190385759 469.07842983019804706
28.009497869018190385759 6144.95430978666627198 28.009497869018190385759 467.02603188329942441
29.009497869018190385759 6157.67436131784870668 29.009497869018190385759 465.11629977009636150
30.009497869018190385759 6169.82019492562267260 30.009497869018190385759 463.29835440594251850
31.009497869018190385759 6181.43390858231578022 31.009497869018190385759 461.57758295610233290
32.009497869018190385759 6192.55340628077283327 32.009497869018190385759 459.93989105567447950
33.009497869018190385759 6203.21271865776179766 33.009497869018190385759 458.38510162549408733
34.009497869018190385759 6213.44241067587245198 34.009497869018190385759 456.88244731809658106
35.009497869018190385759 6223.27042374479697173 35.009497869018190385759 455.43258889776734577
36.009497869018190385759 6232.72184994957297022 36.009497869018190385759 454.03619681876784853
37.009497869018190385759 6241.81969687413493375 37.009497869018190385759 452.68508561408697233
38.009497869018190385759 6250.58500325236309436 38.009497869018190385759 451.37423214529263760
39.009497869018190385759 6259.03691218586845935 39.009497869018190385759 450.08963248577794047
40.009497869018190385759 6267.19310859830511617 40.009497869018190385759 448.82196812197355484
41.009497869018190385759 6275.06987756245598575 41.009497869018190385759 447.61902902325050491
42.009497869018190385759 6282.68216782060972037 42.009497869018190385759 446.41530317395921656
43.009497869018190385759 6290.04385065743281302 43.009497869018190385759 445.26428123361910139
44.009497869018218807469 6297.16779392414537142 44.009497869018218807469 444.10495523499861292
46.009497869018190385759 6310.74923842903444893 46.009497869018190385759 441.85502810928545614
48.009497869018190385759 6323.51227947717052302 48.009497869018190385759 439.69008065525190432
50.009497869018190385759 6335.53155864637301420 50.009497869018190385759 437.54683265229732569
52.009497869018190385759 6346.87235389936267893 52.009497869018190385759 435.46428954447895876
54.009497869018190385759 6357.59228562528005568 54.009497869018190385759 433.45252013866917196
56.009497869018190385759 6367.74214447246413329 56.009497869018190385759 431.48111282631310814
58.009497869018218807469 6377.36734475471530459 58.009497869018218807469 429.45428559148547265
60.009497869018190385759 6386.50814571173305012 60.009497869018190385759 427.55947697584497291
62.009497869018190385759 6395.20093752136745024 62.009497869018190385759 425.69853838753937225
64.009497869018190385759 6403.47822301698397496 64.009497869018190385759 423.86955591097205343
66.009497869018190385759 6411.36946868973154778 66.009497869018190385759 422.04139490127948875
68.009497869018190385759 6418.90143310870371351 68.009497869018190385759 420.22636520457916731
70.009497869018190385759 6426.09809416723874165 70.009497869018190385759 418.49916729771859991
72.009497869018218807469 6432.98174567033493076 72.009497869018218807469 416.77476132961288613
74.009497869018190385759 6439.57244542319494940 74.009497869018190385759 415.10129242914877068
76.009497869018190385759 6445.88854533663379698 76.009497869018190385759 413.46277124567393457
78.009497869018190385759 6451.94715306436773972 78.009497869018190385759 411.84686946240259431
80.009497869018190385759 6457.76369506264563825 80.009497869018190385759 410.27633313327385167
82.009497869018218807469 6463.35243689715207438 82.009497869018218807469 408.74611178329416816
84.009497869018190385759 6468.72676789962497423 84.009497869018190385759 407.26797343887596980
86.009497869018190385759 6473.89878581608900276 86.009497869018190385759 405.79552091050237550
88.009497869018190385759 6478.87970097671222902 88.009497869018190385759 404.38251120845603737
91.009497869018218807469 6486.01590833375666989 91.009497869018218807469 402.31257049328354469
94.009497869018190385759 6492.77815898152766749 94.009497869018190385759 400.32425250415337814
97.009497869018190385759 6499.19551381329165451 97.009497869018190385759 398.40249531452479914
99.504748934509109403734 6504.28939362352230091 99.504748934509109403734 397.16981746525561903
nan nan nan nan

