Time Pressure difference Time.1 Pressure.1 difference.1
(hr) (psi) (hr) (psi)
0.000200000000006639311 0.88553581120544977 0.000200000000006639311 0.70591748282958355
0.000399999999999067768 1.77057008906904567 0.000399999999999067768 1.84775901301314094
0.000600000000005707079 2.65517931887664016 0.000600000000005707079 2.70345404265828693
0.000799999999998135536 3.53940013663256448 0.000799999999998135536 3.57458991958171968
0.001007140329434719206 4.45479775823992252 0.001007140329434719206 4.48907619521617463
0.001267914553963578328 5.60667456665024933 0.001267914553963578328 5.64846537274681015
0.001596209851982166583 7.05597804627041558 0.001596209851982166583 7.10650509623577520
0.002009509145210586212 8.87928702494625810 0.002009509145210586212 8.93970672397497168
0.002529822128138903281 11.17277948824834155 0.002529822128138903281 11.24395760644198461
0.003184857364445292660 14.05718524956503046 0.003184857364445292660 14.13930569653625291
0.004009497869020606231 17.68395571543957345 0.004009497869020606231 17.77585871295216791
0.005047658755842121536 22.24293094729506848 0.005047658755842121536 22.34102012886084054
0.006354625877804664924 27.97183814139037494 0.006354625877804664924 28.06830674164088180
0.008000000000009777068 35.16801370275843652 0.008000000000009777068 35.24800272137444779
0.010071403294347192059 44.20279926553387639 0.010071403294347192059 44.23989057757258081
0.012679145539692626699 55.53911277050933393 0.012679145539692626699 55.48824084617017860
0.015962098519750611558 69.75272591546696788 0.015962098519750611558 69.53910913543653294
0.020095091452091651263 87.55776726365462537 0.020095091452091651263 87.05973576932611024
0.025298221281346400247 109.83688160925581201 0.025298221281346400247 108.85940284737908712
0.031848573644282396344 137.67625813284684000 0.031848573644282396344 135.91038210654798490
0.040094978690191851456 172.40531432773980214 0.040094978690191851456 169.36647809960601307
0.050476587558421215363 215.64007829430556740 0.050476587558421215363 210.57497527033820006
0.063546258777947173257 269.32809682307623689 0.063546258777947173257 261.07535119729919870
0.079999999999998294697 335.79081499755801588 0.079999999999998294697 322.57474393797309631
0.100714032943542974863 417.75659209944888062 0.100714032943542974863 396.88575072361294360
0.126791455396897845276 518.37359593229905386 0.126791455396897845276 485.80677135545607825
0.159620985197506115583 641.18656616401642623 0.159620985197506115583 590.91929825568274737
0.200950914520774404082 790.05486213153960762 0.200950914520774404082 713.27168930120183177
0.252982212813464002465 968.98179305957694396 0.252982212813464002465 852.91828800862333537
0.318485736442795541734 1181.81851391161876563 0.318485736442795541734 1008.29324866616968848
0.400949786901819038576 1431.80350948839441116 0.400949786901819038576 1175.43348402504261685
0.504765875584169521062 1720.90865490887540545 0.504765875584169521062 1347.14578530334824791
0.635462587779443310865 2048.99843156575389003 0.635462587779443310865 1512.35982433067124475
0.799999999999997157829 2412.88701430004175563 0.799999999999997157829 1656.11101187957956427
1.007140329435330272645 2805.50647356012814271 1.007140329435330272645 1760.75843569792937160
1.267914553968893187630 3215.54938828588365141 1.267914553968893187630 1808.94316489849529717
1.596209851975103788391 3628.02605475102018318 1.596209851975103788391 1788.17554858623884684
2.009509145207687197399 4026.03460608592968129 2.009509145207687197399 1695.80953206865115135
2.529822128134711078928 4393.59357169473150861 2.529822128134711078928 1542.10584559377434744
3.184857364427983839050 4718.76462785575949965 3.184857364427983839050 1349.14571340272800626
4.009497869018190385759 4995.89430980294582696 4.009497869018190385759 1145.02080070314195837
5.009497869018190385759 5219.13696957695719902 5.009497869018190385759 960.71728021648300455
6.009497869018190385759 5372.75286935477652150 6.009497869018190385759 831.43814723509433406
7.009497869018204596614 5485.78803463996155187 7.009497869018204596614 741.49990840029454375
8.009497869018190385759 5573.46023818088178814 8.009497869018190385759 678.20013520688030439
9.009497869018204596614 5644.30098156140411447 9.009497869018204596614 633.83828474837378053
10.009497869018190385759 5703.38242675300443807 10.009497869018190385759 602.18956995854955494
11.009497869018190385759 5753.88441118734226620 11.009497869018190385759 576.51795382453713046
12.009497869018190385759 5797.89037277482202626 12.009497869018190385759 556.94340343906515045
13.009497869018190385759 5836.82424255317800998 13.009497869018190385759 541.70078750443792615
14.009497869018204596614 5871.69365445299081330 14.009497869018204596614 529.59468706322979870
15.009497869018190385759 5903.23428012182557723 15.009497869018190385759 519.79753167123305957
16.009497869018190385759 5931.99817596760749439 16.009497869018190385759 511.72995217971288184
17.009497869018190385759 5958.40985501500654209 17.009497869018190385759 505.13259530595956903
18.009497869018190385759 5982.80267367297710734 18.009497869018190385759 499.35644739356058608
19.009497869018204596614 6005.44234980082001130 19.009497869018204596614 494.57900997427481116
20.009497869018190385759 6026.54521126614054083 20.009497869018190385759 490.19711961718491011
21.009497869018204596614 6046.28998186498210998 21.009497869018204596614 486.33706972947197755
22.009497869018190385759 6064.82487862969992420 22.009497869018190385759 482.90041721467343905
23.009497869018190385759 6082.27535634224659589 23.009497869018190385759 479.86472273045944803
24.009497869018190385759 6098.74842576295122853 24.009497869018190385759 477.05199887381178314
25.009497869018190385759 6114.33542992621551093 25.009497869018190385759 474.48121575375427028
26.009497869018204596614 6129.11624439409297338 26.009497869018204596614 472.16678267189217877
27.009497869018190385759 6143.15964128794712451 27.009497869018190385759 469.96181670370123129
28.009497869018190385759 6156.52672844916469330 28.009497869018190385759 467.90555360059374834
29.009497869018190385759 6169.27073487965299137 29.009497869018190385759 465.99222500506834876
30.009497869018190385759 6181.43944199704492348 30.009497869018190385759 464.17085601499326231
31.009497869018190385759 6193.07502705422211875 31.009497869018190385759 462.44684394095378366
32.009497869018190385759 6204.21546542631222110 32.009497869018190385759 460.80606787498834365
33.009497869018190385759 6214.89485183790839073 33.009497869018190385759 459.24835040444980905
34.009497869018190385759 6225.14380881273882551 34.009497869018190385759 457.74286623959955023
35.009497869018190385759 6234.99033038085053704 35.009497869018190385759 456.29027738910019707
36.009497869018190385759 6244.45955588168180839 36.009497869018190385759 454.89125556983896104
37.009497869018190385759 6253.57453622794673720 37.009497869018190385759 453.53759989961258725
38.009497869018190385759 6262.35634977449535654 38.009497869018190385759 452.22427778021784661
39.009497869018190385759 6270.82417567397806124 39.009497869018190385759 450.93725891230485558
40.009497869018190385759 6278.99573215498730860 40.009497869018190385759 449.66720723331440013
41.009497869018190385759 6286.88733495899577974 41.009497869018190385759 448.46200271255980851
42.009497869018190385759 6294.51396098034820170 42.009497869018190385759 447.25600995959757711
43.009497869018190385759 6301.88950762665626826 43.009497869018190385759 446.10282036965230645
44.009497869018218807469 6309.02686698238267127 44.009497869018218807469 444.94131108289883514
46.009497869018190385759 6322.63388859556835087 46.009497869018190385759 442.68714680628971792
48.009497869018190385759 6335.42096550255064358 48.009497869018190385759 440.51812223840681781
50.009497869018190385759 6347.46287984909668012 50.009497869018190385759 438.37083798685904412
52.009497869018190385759 6358.82503253194045101 52.009497869018190385759 436.28437295228394532
54.009497869018190385759 6369.56515245320042595 54.009497869018190385759 434.26881490352542414
56.009497869018190385759 6379.73412591214855638 56.009497869018190385759 432.29369495969604031
58.009497869018218807469 6389.37745274860390055 58.009497869018218807469 430.26305072442613664
60.009497869018190385759 6398.53546802004075289 60.009497869018190385759 428.36467373097843847
62.009497869018190385759 6407.24463043571995513 62.009497869018190385759 426.50023055022779772
64.009497869018190385759 6415.53750403961475968 64.009497869018190385759 424.66780366221684062
66.009497869018190385759 6423.44361081532406388 66.009497869018190385759 422.83619978809923623
68.009497869018190385759 6430.98975972472817375 68.009497869018190385759 421.01775195637685556
70.009497869018190385759 6438.19997381727171160 70.009497869018190385759 419.28730132276137965
72.009497869018218807469 6445.09658888252033648 72.009497869018218807469 417.55964788578916114
74.009497869018190385759 6451.69970049932180700 74.009497869018190385759 415.88302744313966741
76.009497869018190385759 6458.02769513952807756 76.009497869018190385759 414.24142053238898598
78.009497869018190385759 6464.09771267465839628 78.009497869018190385759 412.62247561958224651
80.009497869018190385759 6469.92520861266984866 80.009497869018190385759 411.04898159491841625
82.009497869018218807469 6475.52447538471733424 82.009497869018218807469 409.51587847215159854
84.009497869018190385759 6480.90892753785374225 84.009497869018190385759 408.03495643970245510
86.009497869018190385759 6486.09068560105424694 86.009497869018190385759 406.55973093104950067
88.009497869018190385759 6491.08098101621635578 88.009497869018190385759 405.14406019378276369
91.009497869018218807469 6498.23062755849059613 91.009497869018218807469 403.07022128517303372
94.009497869018190385759 6505.00561314156857406 94.009497869018190385759 401.07815881772057764
97.009497869018190385759 6511.43505338732848031 97.009497869018190385759 399.15278249967457214
99.504748934509109403734 6516.53852619155168213 99.504748934509109403734 397.91778322319390782
nan nan nan nan

