Time Pressure difference Time.1 Pressure.1 difference.1
(hr) (psi) (hr) (psi)
0.000200000000006639311 0.21555805930658972 0.000200000000006639311 0.17183517674141177
0.000399999999999067768 0.43099403483917559 0.000399999999999067768 0.44978344395714620
0.000600000000005707079 0.64632654472655060 0.000600000000005707079 0.65807762880497778
0.000799999999998135536 0.86156450694345310 0.000799999999998135536 0.87013044095081338
0.001007140329434719206 1.08439155957156008 0.001007140329434719206 1.09273565278288465
0.001267914553963578328 1.36478262477670520 0.001267914553963578328 1.37495538678705254
0.001596209851982166583 1.71757360336845633 0.001596209851982166583 1.72987295105739269
0.002009509145210586212 2.16140539423033884 0.002009509145210586212 2.17611282096759195
0.002529822128138903281 2.71968974384992546 0.002529822128138903281 2.73701599630495673
0.003184857364445292660 3.42181483048622459 0.003184857364445292660 3.44180467613053542
0.004009497869020606231 4.30464711494252850 0.004009497869020606231 4.32701823933704066
0.005047658755842121536 5.41439766480208817 0.005047658755842121536 5.43827463663059874
0.006354625877804664924 6.80893428441739346 0.006354625877804664924 6.83241677263626723
0.008000000000009777068 8.56063491448725067 0.008000000000009777068 8.58010592559772611
0.010071403294347192059 10.75989192647864101 0.010071403294347192059 10.76892073269858940
0.012679145539692626699 13.51938929282135149 0.012679145539692626699 13.50700599544931890
0.015962098519750611558 16.97928196626498476 0.015962098519750611558 16.92728314481021101
0.020095091452091651263 21.31340387338961406 0.020095091452091651263 21.19217252279648633
0.025298221281346400247 26.73660933909516402 0.025298221281346400247 26.49867042995411737
0.031848573644282396344 33.51329967707456348 0.031848573644282396344 33.08344827593602133
0.040094978690191851456 41.96708309293666161 0.040094978690191851456 41.22736637950935545
0.050476587558421215363 52.49133484795596161 0.050476587558421215363 51.25838213817443290
0.063546258777947173257 65.56012883193304219 0.063546258777947173257 63.55123680460572899
0.079999999999998294697 81.73855365072135726 0.079999999999998294697 78.52148372174345070
0.100714032943542974863 101.69074939262898738 0.100714032943542974863 96.61034721561630079
0.126791455396897845276 126.18304637825701775 0.126791455396897845276 118.25559565889392388
0.159620985197506115583 156.07830886887239785 0.159620985197506115583 143.84219760171228586
0.200950914520774404082 192.31598617675635410 0.200950914520774404082 173.62534542200307897
0.252982212813464002465 235.87056804739700056 0.252982212813464002465 207.61826747578334107
0.318485736442795541734 287.67950667585461133 0.318485736442795541734 245.43980395163336539
0.400949786901819038576 348.53111744125391169 0.400949786901819038576 286.12525597978009273
0.504765875584169521062 418.90539626071307566 0.504765875584169521062 327.92364510673615996
0.635462587779443310865 498.76935505219012157 0.635462587779443310865 368.14022039628184757
0.799999999999997157829 587.34749690198373173 0.799999999999997157829 403.13228578647664335
1.007140329435330272645 682.91933895871534332 1.007140329435330272645 428.60567184752233061
1.267914553968893187630 782.73241688537950722 1.267914553968893187630 440.33484935029156304
1.596209851975103788391 883.13792122228778680 1.596209851975103788391 435.27957432691340500
2.009509145207687197399 980.02158174460146256 2.009509145207687197399 412.79574135881637176
2.529822128134711078928 1069.49317205727015789 2.529822128134711078928 375.38102820374763269
3.184857364427983839050 1148.64665283330987222 3.184857364427983839050 328.41046970987457598
4.009497869018190385759 1216.10585172834862533 4.009497869018190385759 278.72216859221219920
5.009497869018190385759 1270.44781496281211730 5.009497869018190385759 233.85881163164390273
6.009497869018190385759 1307.84115898767595354 6.009497869018190385759 202.38954899801640863
7.009497869018204596614 1335.35629790578036591 7.009497869018204596614 180.49668822901907106
8.009497869018190385759 1356.69755797824109322 8.009497869018190385759 165.08819080693794490
9.009497869018204596614 1373.94168630113131258 9.009497869018204596614 154.28958247164362660
10.009497869018190385759 1388.32335388066553605 10.009497869018190385759 146.58561900306798975
11.009497869018190385759 1400.61660009165575502 11.009497869018190385759 140.33660718097286235
12.009497869018190385759 1411.32857758334489517 12.009497869018190385759 135.57174952135139279
13.009497869018190385759 1420.80590114781307420 13.009497869018190385759 131.86137590568554856
14.009497869018204596614 1429.29385009710949817 14.009497869018204596614 128.91449619302304086
15.009497869018190385759 1436.97150239807592698 15.009497869018190385759 126.52966231470806235
16.009497869018190385759 1443.97324020264113642 16.009497869018190385759 124.56584362269326505
17.009497869018190385759 1450.40239891812666428 17.009497869018190385759 122.95990806789804139
18.009497869018190385759 1456.34012451250100639 18.009497869018190385759 121.55387206290617996
19.009497869018204596614 1461.85109830677856735 19.009497869018204596614 120.39094321742216209
20.009497869018190385759 1466.98797905820515552 20.009497869018190385759 119.32429885418315507
21.009497869018204596614 1471.79427190134401826 21.009497869018204596614 118.38468144730568099
22.009497869018190385759 1476.30605598222928165 22.009497869018190385759 117.54812787462444135
23.009497869018190385759 1480.55386963594150984 23.009497869018190385759 116.80917592780922121
24.009497869018190385759 1484.56376153440260168 24.009497869018190385759 116.12449972586207991
25.009497869018190385759 1488.35796649519738821 25.009497869018190385759 115.49871699269019132
26.009497869018204596614 1491.95592791171998215 26.009497869018204596614 114.93533525565796083
27.009497869018190385759 1495.37438636614501775 27.009497869018190385759 114.39860011866412037
28.009497869018190385759 1498.62821679354647131 28.009497869018190385759 113.89806238961823226
29.009497869018190385759 1501.73037625359984304 29.009497869018190385759 113.43231792886531650
30.009497869018190385759 1504.69249574928062430 30.009497869018190385759 112.98895837207072645
31.009497869018190385759 1507.52484211188289009 31.009497869018190385759 112.56929753825848195
32.009497869018190385759 1510.23665934719429060 32.009497869018190385759 112.16989810114849035
33.009497869018190385759 1512.83624682896470404 33.009497869018190385759 111.79071687476739783
34.009497869018190385759 1515.33105872415353588 34.009497869018190385759 111.42425033463938178
35.009497869018190385759 1517.72790936902288195 35.009497869018190385759 111.07065962760992761
36.009497869018190385759 1520.03291820804088275 36.009497869018190385759 110.73010826371080384
37.009497869018190385759 1522.25169631864514486 37.009497869018190385759 110.40059997556359406
38.009497869018190385759 1524.38937461616001201 38.009497869018190385759 110.08090972281618747
39.009497869018190385759 1526.45062171011295504 39.009497869018190385759 109.76762223523209627
40.009497869018190385759 1528.43975059035892627 40.009497869018190385759 109.45846491863574101
41.009497869018190385759 1530.36073285186080284 41.009497869018190385759 109.16509276555731844
42.009497869018190385759 1532.21721418600577636 42.009497869018190385759 108.87152874016520343
43.009497869018190385759 1534.01257751438333798 43.009497869018190385759 108.59081811629694414
44.009497869018218807469 1535.74996104176420886 44.009497869018218807469 108.30808230307404472
46.009497869018190385759 1539.06219656602661416 46.009497869018190385759 107.75937126205735694
48.009497869018190385759 1542.17484028680519259 48.009497869018190385759 107.23138501855954985
50.009497869018190385759 1545.10609575274065719 50.009497869018190385759 106.70869082574859021
52.009497869018190385759 1547.87188291895927250 52.009497869018190385759 106.20080131075333441
54.009497869018190385759 1550.48625421558153903 54.009497869018190385759 105.71017204888448759
56.009497869018190385759 1552.96159643914143089 56.009497869018190385759 105.22938627308388959
58.009497869018218807469 1555.30898520854157141 58.009497869018218807469 104.73508471581425283
60.009497869018190385759 1557.53823892593118217 60.009497869018190385759 104.27297978977765069
62.009497869018190385759 1559.65823240869485744 62.009497869018190385759 103.81913506814754555
64.009497869018190385759 1561.67689243069571603 64.009497869018190385759 103.37308378619751181
66.009497869018190385759 1563.60140526425652752 66.009497869018190385759 102.92723284315573551
68.009497869018190385759 1565.43829677509825160 68.009497869018190385759 102.48458435780226239
70.009497869018190385759 1567.19341467920412470 70.009497869018190385759 102.06335624304060161
72.009497869018218807469 1568.87219597798184623 72.009497869018218807469 101.64280902483025670
74.009497869018190385759 1570.47953235838758701 74.009497869018190385759 101.23468431181689198
76.009497869018190385759 1572.01989947475362897 76.009497869018190385759 100.83508262959468027
78.009497869018190385759 1573.49746953264707372 78.009497869018190385759 100.44099735476672208
80.009497869018190385759 1574.91600472808408995 80.009497869018190385759 100.05797578297357120
82.009497869018218807469 1576.27898413970092406 82.009497869018218807469 99.68478620703690751
84.009497869018190385759 1577.58967315066161063 84.009497869018190385759 99.32429860703284419
86.009497869018190385759 1578.85102215288816296 86.009497869018190385759 98.96519766084757919
88.009497869018190385759 1580.06576511578941791 88.009497869018190385759 98.62059359980237616
91.009497869018218807469 1581.80613960305367982 91.009497869018218807469 98.11577754968027421
94.009497869018190385759 1583.45531372525010738 94.009497869018190385759 97.63086760694513089
97.009497869018190385759 1585.02037483770482140 97.009497869018190385759 97.16219047689446597
99.504748934509109403734 1586.26266755978576839 99.504748934509109403734 96.86156565301430987
nan nan nan nan

