Time Pressure difference Time.1 Pressure.1 difference.1
(hr) (psi) (hr) (psi)
0.000200000000006639311 0.69993948987197674 0.000200000000006639311 0.55796673219894710
0.000399999999999067768 1.39948256100288271 0.000399999999999067768 1.46049373115042425
0.000600000000005707079 2.09868966839779558 0.000600000000005707079 2.13684666341693541
0.000799999999998135536 2.79758976965036332 0.000799999999998135536 2.82540425034607745
0.001007140329434719206 3.52113243860881076 0.001007140329434719206 3.54822657911353589
0.001267914553963578328 4.43159145728652160 0.001267914553963578328 4.46462347601510157
0.001596209851982166583 5.57714054221185940 0.001596209851982166583 5.61707780632921683
0.002009509145210586212 7.01830863531936266 0.002009509145210586212 7.06606518314187237
0.002529822128138903281 8.83111611806095453 0.002529822128138903281 8.88737626599408692
0.003184857364445292660 11.11098946887612016 0.003184857364445292660 11.17589858156671845
0.004009497869020606231 13.97763792921492509 0.004009497869020606231 14.05027930224884614
0.005047658755842121536 17.58111365289018124 0.005047658755842121536 17.65864466952252343
0.006354625877804664924 22.10931943318543702 0.006354625877804664924 22.18556952041351593
0.008000000000009777068 27.79727398874045008 0.008000000000009777068 27.86049839161269404
0.010071403294347192059 34.93849077285149463 0.010071403294347192059 34.96780824787457220
0.012679145539692626699 43.89886639097589693 0.012679145539692626699 43.85865653348601256
0.015962098519750611558 55.13349858543958959 0.015962098519750611558 54.96465299144936978
0.020095091452091651263 69.20684423753152714 0.020095091452091651263 68.81319340413840280
0.025298221281346400247 86.81655773814298982 0.025298221281346400247 86.04394529571973749
0.031848573644282396344 108.82117771590620237 0.031848573644282396344 107.42540540564554874
0.040094978690191851456 136.27149374965148354 0.040094978690191851456 133.86955646782766394
0.050476587558421215363 170.44483632096898873 0.050476587558421215363 166.44131034055865825
0.063546258777947173257 212.88057277087136754 0.063546258777947173257 206.35749093696301770
0.079999999999998294697 265.41360471141570088 0.079999999999998294697 254.96744328180017192
0.100714032943542974863 330.20046424401925833 0.100714032943542974863 313.70386875804371130
0.126791455396897845276 409.72950580739052384 0.126791455396897845276 383.98824690783703772
0.159620985197506115583 506.80253960896408216 0.159620985197506115583 467.07061074532822431
0.200950914520774404082 624.47005550058725021 0.200950914520774404082 563.77959652472816288
0.252982212813464002465 765.89632327359413466 0.252982212813464002465 674.15815809704156436
0.318485736442795541734 934.12534793202212313 0.318485736442795541734 796.96862981978267726
0.400949786901819038576 1131.71687169148458452 0.400949786901819038576 929.07853389573392633
0.504765875584169521062 1360.22949133304905445 0.504765875584169521062 1064.80226075198856961
0.635462587779443310865 1619.55609111541275524 0.635462587779443310865 1195.38967317866013218
0.799999999999997157829 1907.17855171648011492 0.799999999999997157829 1309.01255732211143368
1.007140329435330272645 2217.51028596246942470 1.007140329435330272645 1391.72729738905877639
1.267914553968893187630 2541.61375521468835359 1.267914553968893187630 1429.81315947334064731
1.596209851975103788391 2867.64089477970674125 1.596209851975103788391 1413.39815447464934550
2.009509145207687197399 3182.23224033671749567 2.009509145207687197399 1340.39080495275902649
2.529822128134711078928 3472.75582123615549790 2.529822128134711078928 1218.90133096274826130
3.184857364427983839050 3729.77542483711795285 3.184857364427983839050 1066.38303098843448424
4.009497869018190385759 3948.82247607544832135 4.009497869018190385759 905.03993739787824779
5.009497869018190385759 4125.27649569005734520 5.009497869018190385759 759.36394047186297485
6.009497869018190385759 4246.69658188662378961 6.009497869018190385759 657.17996412097215853
7.009497869018204596614 4336.04110632726315089 7.009497869018204596614 586.09156293669889237
8.009497869018190385759 4405.33840254710685258 8.009497869018190385759 536.05856551596457393
9.009497869018204596614 4461.33188486197468592 9.009497869018204596614 500.99435852761496335
10.009497869018190385759 4508.03065873992272827 10.009497869018190385759 475.97878602926715530
11.009497869018190385759 4547.94811072232641891 11.009497869018190385759 455.68759320153736780
12.009497869018190385759 4582.73101833047530818 12.009497869018190385759 440.21560365813326143
13.009497869018190385759 4613.50487592783974833 13.009497869018190385759 428.16763373236119605
14.009497869018204596614 4641.06613101030507096 14.009497869018204596614 418.59880810166947640
15.009497869018190385759 4665.99626840456312493 15.009497869018190385759 410.85500388675478689
16.009497869018190385759 4688.73164096687742131 16.009497869018190385759 404.47827987137083028
17.009497869018190385759 4709.60778953723729501 17.009497869018190385759 399.26363971081951831
18.009497869018190385759 4728.88820353287064790 18.009497869018190385759 394.69809422742895322
19.009497869018204596614 4746.78290994594954100 19.009497869018204596614 390.92194303417772971
20.009497869018190385759 4763.46289725077440380 20.009497869018190385759 387.45843759215455293
21.009497869018204596614 4779.06943115455760562 21.009497869018204596614 384.40740191962964900
22.009497869018190385759 4793.71966440561755007 22.009497869018190385759 381.69102526084617466
23.009497869018190385759 4807.51275816149427556 23.009497869018190385759 379.29157125593650335
24.009497869018190385759 4820.53329517541533278 24.009497869018190385759 377.06835625270275614
25.009497869018190385759 4832.85347421799542644 25.009497869018190385759 375.03637448205580540
26.009497869018204596614 4844.53643001450473093 26.009497869018204596614 373.20701525099747187
27.009497869018190385759 4855.63652098041620775 27.009497869018190385759 371.46418030809468291
28.009497869018190385759 4866.20204758059026062 28.009497869018190385759 369.83888212227384429
29.009497869018190385759 4876.27508273852254206 29.009497869018190385759 368.32656130569779407
30.009497869018190385759 4885.89339353337891225 30.009497869018190385759 366.88692660583586758
31.009497869018190385759 4895.09031743665491376 31.009497869018190385759 365.52424413002080428
32.009497869018190385759 4903.89587069880508352 32.009497869018190385759 364.22735252148987684
33.009497869018190385759 4912.33700225158008834 33.009497869018190385759 362.99611155088558689
34.009497869018190385759 4920.43791655217410153 34.009497869018190385759 361.80615649201433826
35.009497869018190385759 4928.22074046080342669 35.009497869018190385759 360.65801060548244550
36.009497869018190385759 4935.70534445159228198 36.009497869018190385759 359.55220482540846660
37.009497869018190385759 4942.90994827791746502 37.009497869018190385759 358.48225706350956443
38.009497869018190385759 4949.85121255672038387 38.009497869018190385759 357.44418948605567721
39.009497869018190385759 4956.54429674982566212 39.009497869018190385759 356.42691235455674814
40.009497869018190385759 4963.00320558490966505 40.009497869018190385759 355.42304631881336263
41.009497869018190385759 4969.24083524484467489 41.009497869018190385759 354.47043635457032451
42.009497869018190385759 4975.26902366961712687 42.009497869018190385759 353.51720336092250818
43.009497869018190385759 4981.09875555828693905 43.009497869018190385759 352.60570670195261300
44.009497869018218807469 4986.74022098889417975 44.009497869018218807469 351.68763404202809397
46.009497869018190385759 4997.49539502713651018 46.009497869018190385759 349.90591209030981190
48.009497869018190385759 5007.60247367259944440 48.009497869018190385759 348.19148571663544089
50.009497869018190385759 5017.12056574538564746 50.009497869018190385759 346.49424318322223826
52.009497869018190385759 5026.10136499940108479 52.009497869018190385759 344.84507298202146330
54.009497869018190385759 5034.59050114017009037 54.009497869018190385759 343.25194862205347590
56.009497869018190385759 5042.62819538732856017 56.009497869018190385759 341.69078708750407714
58.009497869018218807469 5050.25041143005273625 58.009497869018218807469 340.08573840154355139
60.009497869018190385759 5057.48903064366004401 60.009497869018190385759 338.58523553360231517
62.009497869018190385759 5064.37287048537564260 62.009497869018190385759 337.11155441047139902
64.009497869018190385759 5070.92767001627544232 64.009497869018190385759 335.66317939842514306
66.009497869018190385759 5077.17676381173714617 66.009497869018190385759 334.21545490769869957
68.009497869018190385759 5083.14134203806042933 68.009497869018190385759 332.77812913093322322
70.009497869018190385759 5088.84039283865149628 70.009497869018190385759 331.41035753049095547
72.009497869018218807469 5094.29157072387170047 72.009497869018218807469 330.04479687213222405
74.009497869018190385759 5099.51075951121219987 74.009497869018190385759 328.71957338315831976
76.009497869018190385759 5104.51249211686445051 76.009497869018190385759 327.42202506366459147
78.009497869018190385759 5109.31031612724473234 78.009497869018190385759 326.14238909404951983
80.009497869018190385759 5113.91644778501449764 80.009497869018190385759 324.89867812154733429
82.009497869018218807469 5118.34218402119131497 82.009497869018218807469 323.68689266454839526
84.009497869018190385759 5122.59812787531427603 84.009497869018190385759 322.51635184754678676
86.009497869018190385759 5126.69385957752456306 86.009497869018190385759 321.35031364004942134
88.009497869018190385759 5130.63825661150167434 88.009497869018190385759 320.23134832986022502
91.009497869018218807469 5136.28943400064963498 91.009497869018218807469 318.59215798950231147
94.009497869018190385759 5141.64447429704796377 94.009497869018190385759 317.01760485498402886
97.009497869018190385759 5146.72639088227697357 97.009497869018190385759 315.49576135547590638
99.504748934509109403734 5150.76024485629295668 99.504748934509109403734 314.51960121306962037
nan nan nan nan

