Time Pressure difference Time.1 Pressure.1 difference.1
(hr) (psi) (hr) (psi)
0.000200000000006639311 0.10569835340516176 0.000200000000006639311 0.08425894766856870
0.000399999999999067768 0.21133684333812855 0.000399999999999067768 0.22055018294423767
0.000600000000005707079 0.31692459915162902 0.000600000000005707079 0.32268671373834817
0.000799999999998135536 0.42246599375219518 0.000799999999998135536 0.42666627799518647
0.001007140329434719206 0.53172867978991556 0.001007140329434719206 0.53582018495531403
0.001267914553963578328 0.66921773492911807 0.001267914553963578328 0.67420592325079409
0.001596209851982166583 0.84220790589881844 0.001596209851982166583 0.84823886017099948
0.002009509145210586212 1.05983971068437466 0.002009509145210586212 1.06705146047445631
0.002529822128138903281 1.33359304042061977 0.002529822128138903281 1.34208892482907127
0.003184857364445292660 1.67787831456274339 0.003184857364445292660 1.68768028520686486
0.004009497869020606231 2.11077290964363318 0.004009497869020606231 2.12174253434673421
0.005047658755842121536 2.65493630667901614 0.005047658755842121536 2.66664431989222406
0.006354625877804664924 3.33874383830505383 0.006354625877804664924 3.35025841747029318
0.008000000000009777068 4.19768584609992512 0.008000000000009777068 4.20723340753247577
0.010071403294347192059 5.27608600255902527 0.010071403294347192059 5.28051325502980973
0.012679145539692626699 6.62919861076568129 0.012679145539692626699 6.62312649197707959
0.015962098519750611558 8.32574830006043598 0.015962098519750611558 8.30025080845905983
0.020095091452091651263 10.45097410007907790 0.020095091452091651263 10.39152861156430063
0.025298221281346400247 13.11022928982658620 0.025298221281346400247 12.99355654287325557
0.031848573644282396344 16.43316238991686973 0.031848573644282396344 16.22238583414623747
0.040094978690191851456 20.57845387182608476 0.040094978690191851456 20.21573563782891370
0.050476587558421215363 25.73899430768496899 0.050476587558421215363 25.13441904072645983
0.063546258777947173257 32.14724463959651501 0.063546258777947173257 31.16218947561748820
0.079999999999998294697 40.08029464726490687 0.079999999999998294697 38.50281248131821599
0.100714032943542974863 49.86380375623120642 0.100714032943542974863 47.37264129877710417
0.126791455396897845276 61.87354011597930992 0.126791455396897845276 57.98633455088620536
0.159620985197506115583 76.53260705153203958 0.159620985197506115583 70.53266060006740190
0.200950914520774404082 94.30166117547513238 0.200950914520774404082 85.13675238839533677
0.252982212813464002465 115.65854108887806717 0.252982212813464002465 101.80509640704433139
0.318485736442795541734 141.06292412290940774 0.318485736442795541734 120.35079189906348063
0.400949786901819038576 170.90135874532526827 0.400949786901819038576 140.30080119471844569
0.504765875584169521062 205.40920974946160982 0.504765875584169521062 160.79653640368914580
0.635462587779443310865 244.57030151207774793 0.635462587779443310865 180.51663316728877362
0.799999999999997157829 288.00437106776809060 0.799999999999997157829 197.67490461344607411
1.007140329435330272645 334.86778396817317116 1.007140329435330272645 210.16571553913257731
1.267914553968893187630 383.81087623337145942 1.267914553968893187630 215.91708829145571258
1.596209851975103788391 433.04446330204842752 1.596209851975103788391 213.43824687072589086
2.009509145207687197399 480.55112309484320576 2.009509145207687197399 202.41335580142731487
2.529822128134711078928 524.42329286205915650 2.529822128134711078928 184.06714510376815497
3.184857364427983839050 563.23600351285847410 3.184857364427983839050 161.03524962607750126
4.009497869018190385759 596.31445239189292806 4.009497869018190385759 136.67071587340134897
5.009497869018190385759 622.96089768446768176 5.009497869018190385759 114.67208137922307287
6.009497869018190385759 641.29663008275997527 6.009497869018190385759 99.24120742373777659
7.009497869018204596614 654.78860939781498018 7.009497869018204596614 88.50609808913290522
8.009497869018190385759 665.25324271519934882 8.009497869018190385759 80.95058004818966424
9.009497869018204596614 673.70885776155864733 9.009497869018204596614 75.65550955173257819
10.009497869018190385759 680.76087236619514442 10.009497869018190385759 71.87789039918777689
11.009497869018190385759 686.78883479397791234 11.009497869018190385759 68.81370313507163416
12.009497869018190385759 692.04142607368646622 12.009497869018190385759 66.47726713981323599
13.009497869018190385759 696.68860789873451722 13.009497869018190385759 64.65789474911993295
14.009497869018204596614 700.85065236421974078 14.009497869018204596614 63.21289967765994788
15.009497869018190385759 704.61536990175920891 15.009497869018190385759 62.04350237053252215
16.009497869018190385759 708.04865446229905501 16.009497869018190385759 61.08054880340558412
17.009497869018190385759 711.20117630348295279 17.009497869018190385759 60.29308233445193821
18.009497869018190385759 714.11272514705649428 18.009497869018190385759 59.60363610806596313
19.009497869018204596614 716.81501731645130349 19.009497869018204596614 59.03339686723016655
20.009497869018190385759 719.33387390112761750 20.009497869018190385759 58.51037048062263324
21.009497869018204596614 721.69062753463583704 21.009497869018204596614 58.04963144327344793
22.009497869018190385759 723.90296953568781646 22.009497869018190385759 57.63942949836797425
23.009497869018190385759 725.98587430024940659 23.009497869018190385759 57.27708626575972772
24.009497869018190385759 727.95211472922437679 24.009497869018190385759 56.94135700843429504
25.009497869018190385759 729.81259360961405491 25.009497869018190385759 56.63450601572067455
26.009497869018204596614 731.57684496057311208 26.009497869018204596614 56.35825319485931573
27.009497869018190385759 733.25307748455759338 27.009497869018190385759 56.09506646745305858
28.009497869018190385759 734.84858506865032268 28.009497869018190385759 55.84962904819117568
29.009497869018190385759 736.36972117454502040 29.009497869018190385759 55.62125242071774522
30.009497869018190385759 737.82218903536158905 30.009497869018190385759 55.40385217472194057
31.009497869018190385759 739.21102296605840820 31.009497869018190385759 55.19807253806497016
32.009497869018190385759 740.54075574167438845 32.009497869018190385759 55.00222802643188658
33.009497869018190385759 741.81545693929922436 33.009497869018190385759 54.81629746368903255
34.009497869018190385759 743.03878169099425577 34.009497869018190385759 54.63660151544092969
35.009497869018190385759 744.21407138944368853 35.009497869018190385759 54.46321919963884284
36.009497869018190385759 745.34432668888484841 36.009497869018190385759 54.29623069301649707
37.009497869018190385759 746.43229896705770443 37.009497869018190385759 54.13465713087480680
38.009497869018190385759 747.48050415541433722 38.009497869018190385759 53.97789781775156825
39.009497869018190385759 748.49123149492027096 39.009497869018190385759 53.82427808445743977
40.009497869018190385759 749.46659584932649523 40.009497869018190385759 53.67268357014184943
41.009497869018190385759 750.40854468025611368 41.009497869018190385759 53.52882927114200839
42.009497869018190385759 751.31886564333092338 42.009497869018190385759 53.38488088803467235
43.009497869018190385759 752.19921754566291838 43.009497869018190385759 53.24723513810699416
44.009497869018218807469 753.05113919808513856 44.009497869018218807469 53.10859634166178722
46.009497869018190385759 754.67528557484695284 46.009497869018190385759 52.83953725977330151
48.009497869018190385759 756.20156261167664979 48.009497869018190385759 52.58064053033615437
50.009497869018190385759 757.63889637296551882 50.009497869018190385759 52.32433874467208312
52.009497869018190385759 758.99509316875617060 52.009497869018190385759 52.07529639562036294
54.009497869018190385759 760.27704357289132986 54.009497869018190385759 51.83471756837192856
56.009497869018190385759 761.49082141996507289 56.009497869018190385759 51.59896546981333643
58.009497869018218807469 762.64185761191038182 58.009497869018218807469 51.35658594173131775
60.009497869018190385759 763.73496657758016681 60.009497869018190385759 51.12999395097205024
62.009497869018190385759 764.77450006140645655 62.009497869018190385759 50.90745233071327647
64.009497869018190385759 765.76434493705926343 64.009497869018190385759 50.68873220404279323
66.009497869018190385759 766.70802497513739127 66.009497869018190385759 50.47011031305319761
68.009497869018190385759 767.60874011751923263 68.009497869018190385759 50.25305873915400667
70.009497869018190385759 768.46935777706153203 70.009497869018190385759 50.04651059021681903
72.009497869018218807469 769.29254397375950703 72.009497869018218807469 49.84029631719475617
74.009497869018190385759 770.08069733403556256 74.009497869018190385759 49.64017338841986060
76.009497869018190385759 770.83601248375941850 76.009497869018190385759 49.44422970640356851
78.009497869018190385759 771.56053525346021615 78.009497869018190385759 49.25099098090878158
80.009497869018190385759 772.25611042651235039 80.009497869018190385759 49.06317731443105856
82.009497869018218807469 772.92444396039388721 82.009497869018218807469 48.88018474244666578
84.009497869018190385759 773.56713702754450424 84.009497869018190385759 48.70342055248328705
86.009497869018190385759 774.18563634523854944 86.009497869018190385759 48.52733630473992577
88.009497869018190385759 774.78128250851443681 88.009497869018190385759 48.35836056824286544
91.009497869018218807469 775.63467077060943211 91.009497869018218807469 48.11082528497835398
94.009497869018190385759 776.44333916257437522 94.009497869018190385759 47.87305091151363712
97.009497869018190385759 777.21076295130694689 97.009497869018190385759 47.64323625701003095
99.504748934509109403734 777.81991806985638505 99.504748934509109403734 47.49582562908424421
nan nan nan nan

