Time Pressure difference Time.1 Pressure.1 difference.1
(hr) (psi) (hr) (psi)
0.000200000000006639311 0.24302298578194673 0.000200000000006639311 0.19372923400962253
0.000399999999999067768 0.48590833271443729 0.000399999999999067768 0.50709175921037331
0.000600000000005707079 0.72867703112028093 0.000600000000005707079 0.74192535757163514
0.000799999999998135536 0.97133913524126758 0.000799999999998135536 0.98099648168972009
0.001007140329434719206 1.22255727951697124 0.001007140329434719206 1.23196451973977705
0.001267914553963578328 1.53867384723860212 0.001267914553963578328 1.55014275267111712
0.001596209851982166583 1.93641502773586582 0.001596209851982166583 1.95028147377899108
0.002009509145210586212 2.43679681511682977 0.002009509145210586212 2.45337816109087603
0.002529822128138903281 3.06621391970725199 0.002529822128138903281 3.08574776417392815
0.003184857364445292660 3.85779895946709539 0.003184857364445292660 3.88033577386145323
0.004009497869020606231 4.85311566626725099 0.004009497869020606231 4.87833716558461639
0.005047658755842121536 6.10426300433285629 0.005047658755842121536 6.13118221581519229
0.006354625877804664924 7.67648189594547858 0.006354625877804664924 7.70295636142776097
0.008000000000009777068 9.65137218158408139 0.008000000000009777068 9.67332405511403870
0.010071403294347192059 12.13084340745854561 0.010071403294347192059 12.14102260211578432
0.012679145539692626699 15.24193696333527015 0.012679145539692626699 15.22797587131738162
0.015962098519750611558 19.14266538281612284 0.015962098519750611558 19.08404122889799837
0.020095091452091651263 24.02901131671724499 0.020095091452091651263 23.89233350060453631
0.025298221281346400247 30.14320435141230803 0.025298221281346400247 29.87494890172433770
0.031848573644282396344 37.78333399886398070 0.031848573644282396344 37.29871388638347440
0.040094978690191851456 47.31424039821430938 0.040094978690191851456 46.48027406492947478
0.050476587558421215363 59.17941998302370621 0.050476587558421215363 57.78937291253642883
0.063546258777947173257 73.91334988001717932 0.063546258777947173257 71.64849863685279274
0.079999999999998294697 92.15311840158545920 0.079999999999998294697 88.52615153184976293
0.100714032943542974863 114.64748580172845038 0.100714032943542974863 108.91977369482610527
0.126791455396897845276 142.26042294382645537 0.126791455396897845276 133.32291093589583397
0.159620985197506115583 175.96473432320749453 0.159620985197506115583 162.16958185212345711
0.200950914520774404082 216.81956742707666308 0.200950914520774404082 195.74749368040502873
0.252982212813464002465 265.92357478702672324 0.252982212813464002465 234.07156024296807573
0.318485736442795541734 324.33365231409089802 0.318485736442795541734 276.71205696477585434
0.400949786901819038576 392.93855711523605123 0.400949786901819038576 322.58136967604554002
0.504765875584169521062 472.27944288852597765 0.504765875584169521062 369.70542228249786376
0.635462587779443310865 562.31911843721820787 0.635462587779443310865 415.04611720353005921
0.799999999999997157829 662.18327836053776991 0.799999999999997157829 454.49663107973429987
1.007140329435330272645 769.93222770635088636 1.007140329435330272645 483.21566092461972630
1.267914553968893187630 882.46280204838149075 1.267914553968893187630 496.43928961500057540
1.596209851975103788391 995.66128570234764084 1.596209851975103788391 490.73990619096031196
2.009509145207687197399 1104.88919640704079939 2.009509145207687197399 465.39133774816366440
2.529822128134711078928 1205.76064185607287982 2.529822128134711078928 423.20949897874254475
3.184857364427983839050 1294.99931516342257964 3.184857364427983839050 370.25427473082379493
4.009497869018190385759 1371.05370156246249280 4.009497869018190385759 314.23503177191491886
5.009497869018190385759 1432.31954428239805566 5.009497869018190385759 263.65549419474911019
6.009497869018190385759 1474.47729121390489126 6.009497869018190385759 228.17663439158604888
7.009497869018204596614 1505.49822003277176918 7.009497869018204596614 203.49433576399061963
8.009497869018190385759 1529.55863679400158617 8.009497869018190385759 186.12259349662502927
9.009497869018204596614 1548.99989343602442204 9.009497869018204596614 173.94810070162137094
10.009497869018190385759 1565.21397425928330449 10.009497869018190385759 165.26255115403805007
11.009497869018190385759 1579.07354141607515885 11.009497869018190385759 158.21733319244816585
12.009497869018190385759 1591.15036546075930346 12.009497869018190385759 152.84537011673592133
13.009497869018190385759 1601.83522446008259976 13.009497869018190385759 148.66224619482693470
14.009497869018204596614 1611.40464953033188067 14.009497869018204596614 145.33989532186382121
15.009497869018190385759 1620.06053552215507807 15.009497869018190385759 142.65120230075194740
16.009497869018190385759 1627.95438663772688415 16.009497869018190385759 140.43716732751516929
17.009497869018190385759 1635.20270457178753531 17.009497869018190385759 138.62661450125958140
18.009497869018190385759 1641.89697435386210600 18.009497869018190385759 137.04143105161622884
19.009497869018204596614 1648.11011855436049700 19.009497869018204596614 135.73032980497015387
20.009497869018190385759 1653.90150534747454003 20.009497869018190385759 134.52778094757329086
21.009497869018204596614 1659.32018299302103514 21.009497869018204596614 133.46844394831376235
22.009497869018190385759 1664.40682759386481848 22.009497869018190385759 132.52530246868857944
23.009497869018190385759 1669.19586846986476303 23.009497869018190385759 131.69219834332159280
24.009497869018190385759 1673.71667323569727159 24.009497869018190385759 130.92028540521903324
25.009497869018190385759 1677.99430971659307943 25.009497869018190385759 130.21476973693256696
26.009497869018204596614 1682.05069864950655756 26.009497869018204596614 129.57960577085762566
27.009497869018190385759 1685.90471358654190226 27.009497869018190385759 128.97448353146688760
28.009497869018190385759 1689.57312472477087795 28.009497869018190385759 128.41017072497498930
29.009497869018190385759 1693.07054002336326448 29.009497869018190385759 127.88508430590222531
30.009497869018190385759 1696.41007242776072417 30.009497869018190385759 127.38523492140792825
31.009497869018190385759 1699.60329689833929478 31.009497869018190385759 126.91210378830685102
32.009497869018190385759 1702.66063524857418088 32.009497869018190385759 126.46181561982763242
33.009497869018190385759 1705.59144430138098869 33.009497869018190385759 126.03432172753697671
34.009497869018190385759 1708.40412798244324222 34.009497869018190385759 125.62116253943898414
35.009497869018190385759 1711.10636886391762346 35.009497869018190385759 125.22251973460269880
36.009497869018190385759 1713.70506608782989133 36.009497869018190385759 124.83857765638437343
37.009497869018190385759 1716.20654565654194812 37.009497869018190385759 124.46708568673577133
38.009497869018190385759 1718.61659223134643071 38.009497869018190385759 124.10666269908234938
39.009497869018190385759 1720.94046926391115448 39.009497869018190385759 123.75345827292575507
40.009497869018190385759 1723.18303927561669298 40.009497869018190385759 123.40491025575920503
41.009497869018190385759 1725.34877989476194671 41.009497869018190385759 123.07415863916116905
42.009497869018190385759 1727.44180132167434749 42.009497869018190385759 122.74319070319782554
43.009497869018190385759 1729.46591750656352815 43.009497869018190385759 122.42671386084442986
44.009497869018218807469 1731.42466650268397643 44.009497869018218807469 122.10795379342711442
46.009497869018190385759 1735.15892431382121686 46.009497869018190385759 121.48932976262838679
48.009497869018190385759 1738.66815970558741355 48.009497869018190385759 120.89407114061539517
50.009497869018190385759 1741.97289559768432810 50.009497869018190385759 120.30477884601771166
52.009497869018190385759 1745.09108035651024693 52.009497869018190385759 119.73217753953657905
54.009497869018190385759 1748.03855687625400606 54.009497869018190385759 119.17903566901262025
56.009497869018190385759 1750.82929019393577619 56.009497869018190385759 118.63699147390153144
58.009497869018218807469 1753.47576710769953934 58.009497869018218807469 118.07970940933499548
60.009497869018190385759 1755.98905701301873705 60.009497869018190385759 117.55872624947903660
62.009497869018190385759 1758.37916549551709977 62.009497869018190385759 117.04705575250612526
64.009497869018190385759 1760.65502930410480076 64.009497869018190385759 116.54417168173618791
66.009497869018190385759 1762.82475033653645369 66.009497869018190385759 116.04151347568135577
68.009497869018190385759 1764.89568593949297792 68.009497869018190385759 115.54246576246431744
70.009497869018190385759 1766.87442890473994339 70.009497869018190385759 115.06756765624655259
72.009497869018218807469 1768.76710897903762998 72.009497869018218807469 114.59343720173912118
74.009497869018190385759 1770.57924111447528048 74.009497869018190385759 114.13331204266614805
76.009497869018190385759 1772.31587122250198263 76.009497869018190385759 113.68279586039245999
78.009497869018190385759 1773.98170310244404391 78.009497869018190385759 113.23849894823122497
80.009497869018190385759 1775.58097830347719537 80.009497869018190385759 112.80667540010919936
82.009497869018218807469 1777.11761918452771170 82.009497869018218807469 112.38593657318446617
84.009497869018190385759 1778.59530718144105776 84.009497869018190385759 111.97951812067023525
86.009497869018190385759 1780.01736860480059477 86.009497869018190385759 111.57466299987447655
88.009497869018190385759 1781.38688576760819160 88.009497869018190385759 111.18615185769225207
91.009497869018218807469 1783.34900681116482701 91.009497869018218807469 110.61701561585574893
94.009497869018190385759 1785.20830736591892673 94.009497869018190385759 110.07032178080301321
97.009497869018190385759 1786.97277780930426161 97.009497869018190385759 109.54192903186557828
99.504748934509109403734 1788.37335493226805738 99.504748934509109403734 109.20300065899684228
nan nan nan nan

