Time Pressure difference Time.1 Pressure.1 difference.1
(hr) (psi) (hr) (psi)
0.000200000000006639311 0.23553255128866754 0.000200000000006639311 0.18775812748192869
0.000399999999999067768 0.47093170602118412 0.000399999999999067768 0.49146221868676582
0.000600000000005707079 0.70621780755835450 0.000600000000005707079 0.71905779518072854
0.000799999999998135536 0.94140060025095462 0.000799999999998135536 0.95076028876092722
0.001007140329434719206 1.18487571953185911 0.001007140329434719206 1.19399301056971563
0.001267914553963578328 1.49124896838535759 0.001267914553963578328 1.50236438015728124
0.001596209851982166583 1.87673100290839034 0.001596209851982166583 1.89017005849128239
0.002009509145210586212 2.36169006396596881 0.002009509145210586212 2.37776034105725298
0.002529822128138903281 2.97170732629161760 0.002529822128138903281 2.99063910020966306
0.003184857364445292660 3.73889419701776671 0.003184857364445292660 3.76073638357120243
0.004009497869020606231 4.70353333408778163 0.004009497869020606231 4.72797745842618689
0.005047658755842121536 5.91611791173355694 0.005047658755842121536 5.94220742149212100
0.006354625877804664924 7.43987800189236381 0.006354625877804664924 7.46553647357553452
0.008000000000009777068 9.35389838146676311 0.008000000000009777068 9.37517365615504517
0.010071403294347192059 11.75694754900947991 0.010071403294347192059 11.76681300136564090
0.012679145539692626699 14.77215123501328975 0.012679145539692626699 14.75862045062608985
0.015962098519750611558 18.55265172375672122 0.015962098519750611558 18.49583447869223818
0.020095091452091651263 23.28839110490061870 0.020095091452091651263 23.15592596120233893
0.025298221281346400247 29.21413298441672168 0.025298221281346400247 28.95414568215064222
0.031848573644282396344 36.61877918383050456 0.031848573644282396344 36.14909599262507101
0.040094978690191851456 45.85592476950222363 0.040094978690191851456 45.04766287799670721
0.050476587558421215363 57.35539676436886936 0.050476587558421215363 56.00819361043770073
0.063546258777947173257 71.63519868508512900 0.063546258777947173257 69.44015450078542528
0.079999999999998294697 89.31278256044070929 0.079999999999998294697 85.79760576545712070
0.100714032943542974863 111.11383041742858779 0.100714032943542974863 105.56265738231434170
0.126791455396897845276 137.87568388048930501 0.126791455396897845276 129.21364313307714156
0.159620985197506115583 170.54116374475248108 0.159620985197506115583 157.17120432928408036
0.200950914520774404082 210.13677254062568522 0.200950914520774404082 189.71418051902267621
0.252982212813464002465 257.72730022167320385 0.252982212813464002465 226.85702585191768321
0.318485736442795541734 314.33706714002647686 0.318485736442795541734 268.18326068846425869
0.400949786901819038576 380.82743720415004418 0.400949786901819038576 312.63879321342767525
0.504765875584169521062 457.72288471730428228 0.504765875584169521062 358.31039214365375756
0.635462587779443310865 544.98736478675596118 0.635462587779443310865 402.25359989246237546
0.799999999999997157829 641.77351978093213347 0.799999999999997157829 440.48817327248218589
1.007140329435330272645 746.20143986608661635 1.007140329435330272645 468.32202753995682087
1.267914553968893187630 855.26360609483549524 1.267914553968893187630 481.13807863371624762
1.596209851975103788391 964.97309538960394093 1.596209851975103788391 475.61436113712932183
2.009509145207687197399 1070.83439240819393490 2.009509145207687197399 451.04708418743257425
2.529822128134711078928 1168.59678645639951355 2.529822128134711078928 410.16537058556212969
3.184857364427983839050 1255.08495270975549829 3.184857364427983839050 358.84232790692857407
4.009497869018190385759 1328.79519706224959918 4.009497869018190385759 304.54970545017783934
5.009497869018190385759 1388.17270901341998979 5.009497869018190385759 255.52912622299314194
6.009497869018190385759 1429.03107333402431323 6.009497869018190385759 221.14379292061252613
7.009497869018204596614 1459.09587763450122111 7.009497869018204596614 197.22225007263472207
8.009497869018190385759 1482.41470620788504675 8.009497869018190385759 180.38593821761946856
9.009497869018204596614 1501.25674603559923526 9.009497869018204596614 168.58668663890017569
10.009497869018190385759 1516.97107779238763214 10.009497869018190385759 160.16884238559165965
11.009497869018190385759 1530.40346650941546613 11.009497869018190385759 153.34077155295491934
12.009497869018190385759 1542.10805967601004340 12.009497869018190385759 148.13438268163105249
13.009497869018190385759 1552.46359082946355556 13.009497869018190385759 144.08019066142475140
14.009497869018204596614 1561.73806786672571434 14.009497869018204596614 140.86024101399817710
15.009497869018190385759 1570.12716285195165256 15.009497869018190385759 138.25441866819451775
16.009497869018190385759 1577.77771033724889094 16.009497869018190385759 136.10862449892738368
17.009497869018190385759 1584.80262121169812417 17.009497869018190385759 134.35387638307005886
18.009497869018190385759 1591.29056076076381032 18.009497869018190385759 132.81755132742259207
19.009497869018204596614 1597.31220394138358643 19.009497869018204596614 131.54686073563888726
20.009497869018190385759 1602.92508908676495594 20.009497869018190385759 130.38137674028507718
21.009497869018204596614 1608.17675269529127036 21.009497869018204596614 129.35469053894789226
22.009497869018190385759 1613.10661715432797791 22.009497869018190385759 128.44061848848926388
23.009497869018190385759 1617.74805060606740881 23.009497869018190385759 127.63319223000003433
24.009497869018190385759 1622.12951549898048142 24.009497869018190385759 126.88507112903076290
25.009497869018190385759 1626.27530701984869665 25.009497869018190385759 126.20130080668464245
26.009497869018204596614 1630.20667026647402054 26.009497869018204596614 125.58571381216681573
27.009497869018190385759 1633.94189707188820648 27.009497869018190385759 124.99924260070248749
28.009497869018190385759 1637.49724074352775460 28.009497869018190385759 124.45232299715040369
29.009497869018190385759 1640.88685899524602974 29.009497869018190385759 123.94342074852850999
30.009497869018190385759 1644.12346060635695721 30.009497869018190385759 123.45897768067960953
31.009497869018190385759 1647.21826377476031666 31.009497869018190385759 123.00042935647547893
32.009497869018190385759 1650.18136909365239262 32.009497869018190385759 122.56401993291513008
33.009497869018190385759 1653.02184499072200197 33.009497869018190385759 122.14970222223618634
34.009497869018190385759 1655.74783636654615293 34.009497869018190385759 121.74927739267546656
35.009497869018190385759 1658.36678900167362372 35.009497869018190385759 121.36292152360466901
36.009497869018190385759 1660.88538939334193856 36.009497869018190385759 120.99081327656431029
37.009497869018190385759 1663.30976856438837785 37.009497869018190385759 120.63077140187063208
38.009497869018190385759 1665.64553288175011403 38.009497869018190385759 120.28145734191885197
39.009497869018190385759 1667.89778356742067444 39.009497869018190385759 119.93913935355476497
40.009497869018190385759 1670.07123327054637230 40.009497869018190385759 119.60133425472552915
41.009497869018190385759 1672.17022161033423799 41.009497869018190385759 119.28077703726920333
42.009497869018190385759 1674.19873210285572895 42.009497869018190385759 118.96001016782528836
43.009497869018190385759 1676.16046114505979858 43.009497869018190385759 118.65328774869510653
44.009497869018218807469 1678.05883774061476288 44.009497869018218807469 118.34435247787627077
46.009497869018190385759 1681.67799856442275086 46.009497869018190385759 117.74479562610902406
48.009497869018190385759 1685.07907259137391520 48.009497869018190385759 117.16788401641835549
50.009497869018190385759 1688.28195018542692196 50.009497869018190385759 116.59675484048977978
52.009497869018190385759 1691.30402650990527036 52.009497869018190385759 116.04180220441388371
54.009497869018190385759 1694.16065615061597782 54.009497869018190385759 115.50570922715949962
56.009497869018190385759 1696.86537371535541752 56.009497869018190385759 114.98037187367854983
58.009497869018218807469 1699.43028113520199440 58.009497869018218807469 114.44026631110206438
60.009497869018190385759 1701.86610662563134611 60.009497869018190385759 113.93534085137865475
62.009497869018190385759 1704.18254738092946354 62.009497869018190385759 113.43944102040833855
64.009497869018190385759 1706.38826470226604215 64.009497869018190385759 112.95205680113473079
66.009497869018190385759 1708.49111077136899439 66.009497869018190385759 112.46489148499254895
68.009497869018190385759 1710.49821616738540797 68.009497869018190385759 111.98122537937467769
70.009497869018190385759 1712.41597047959362499 70.009497869018190385759 111.52096454355402955
72.009497869018218807469 1714.25031452420398637 72.009497869018218807469 111.06144769894581259
74.009497869018190385759 1716.00659327190601289 74.009497869018190385759 110.61550447970725486
76.009497869018190385759 1717.68969710947976637 76.009497869018190385759 110.17887407017488499
78.009497869018190385759 1719.30418485613586199 78.009497869018190385759 109.74827124092271902
80.009497869018190385759 1720.85416732837006748 80.009497869018190385759 109.32975732270857350
82.009497869018218807469 1722.34344599048404234 82.009497869018218807469 108.92198647332602945
84.009497869018190385759 1723.77558880941023745 84.009497869018190385759 108.52809461695095195
86.009497869018190385759 1725.15381957246086131 86.009497869018190385759 108.13571790741259804
88.009497869018190385759 1726.48112558983939380 88.009497869018190385759 107.75918142372228203
91.009497869018218807469 1728.38277029986170419 91.009497869018218807469 107.20758705235334673
94.009497869018190385759 1730.18476364573666615 94.009497869018190385759 106.67774336975087124
97.009497869018190385759 1731.89484972614081926 97.009497869018190385759 106.16563669869164244
99.504748934509109403734 1733.25225837613652402 99.504748934509109403734 105.83715474827432956
nan nan nan nan

