Time Pressure difference Time.1 Pressure.1 difference.1
(hr) (psi) (hr) (psi)
0.000200000000006639311 0.74821117882866472 0.000200000000006639311 0.59644719648852962
0.000399999999999067768 1.49599859969273696 0.000399999999999067768 1.56121743674700553
0.000600000000005707079 2.24342688690798830 0.000600000000005707079 2.28421539882500024
0.000799999999998135536 2.99052699514349163 0.000799999999998135536 3.02025971588718578
0.001007140329434719206 3.76396915851286673 0.001007140329434719206 3.79293186043171149
0.001267914553963578328 4.73721845434076538 0.001267914553963578328 4.77252854332648813
0.001596209851982166583 5.96177092443336765 0.001596209851982166583 6.00446248262778326
0.002009509145210586212 7.50232992051380254 0.002009509145210586212 7.55338002335855307
0.002529822128138903281 9.44015860896170977 0.002529822128138903281 9.50029876709712795
0.003184857364445292660 11.87726460466067913 0.003184857364445292660 11.94665020788166565
0.004009497869020606231 14.94161295881595564 0.004009497869020606231 15.01926408171428307
0.005047658755842121536 18.79360424964122700 0.005047658755842121536 18.87648223293786742
0.006354625877804664924 23.63410008374994931 0.006354625877804664924 23.71560879768341579
0.008000000000009777068 29.71432736727427582 0.008000000000009777068 29.78191207379288130
0.010071403294347192059 37.34804186063435338 0.010071403294347192059 37.37938123048660799
0.012679145539692626699 46.92637441793974773 0.012679145539692626699 46.88339146682987746
0.015962098519750611558 58.93580883271128101 0.015962098519750611558 58.75531871499759973
0.020095091452091651263 73.97973004701646005 0.020095091452091651263 73.55893088028587101
0.025298221281346400247 92.80390654767008130 0.025298221281346400247 91.97801048852799966
0.031848573644282396344 116.32608652389973258 0.031848573644282396344 114.83405405431075508
0.040094978690191851456 145.66952780135159173 0.040094978690191851456 143.10193967250546621
0.050476587558421215363 182.19965261896683728 0.050476587558421215363 177.92002139852823461
0.063546258777947173257 227.56199158265559390 0.063546258777947173257 220.58904203606391548
0.079999999999998294697 283.71799124323746355 0.079999999999998294697 272.55140488744154936
0.100714032943542974863 352.97291005395163666 0.100714032943542974863 335.33861832756394961
0.126791455396897845276 437.98671310445195104 0.126791455396897845276 410.47019497044641412
0.159620985197506115583 541.75443889234088601 0.159620985197506115583 499.28237700362677742
0.200950914520774404082 667.53695587993809113 0.200950914520774404082 602.66094800919222507
0.252982212813464002465 818.71675936142821683 0.252982212813464002465 720.65182417269966209
0.318485736442795541734 998.54778572043744589 0.318485736442795541734 851.93198360045721529
0.400949786901819038576 1209.76631111848359978 0.400949786901819038576 993.15291554371549410
0.504765875584169521062 1454.03842176981106604 0.504765875584169521062 1138.23689942453961521
0.635462587779443310865 1731.24961464061357219 0.635462587779443310865 1277.83034029443001600
0.799999999999997157829 2038.70810700727201947 0.799999999999997157829 1399.28928541329128166
1.007140329435330272645 2370.44202982195020013 1.007140329435330272645 1487.70849031244233629
1.267914553968893187630 2716.89746247087350639 1.267914553968893187630 1528.42096357495029224
1.596209851975103788391 3065.40923235072068564 1.596209851975103788391 1510.87388926600442574
2.009509145207687197399 3401.69653277373208766 2.009509145207687197399 1432.83155012191468813
2.529822128134711078928 3712.25622270071744424 2.529822128134711078928 1302.96349171879978712
3.184857364427983839050 3987.00131620519505304 3.184857364427983839050 1139.92668829798162733
4.009497869018190385759 4221.15506063237626222 4.009497869018190385759 967.45648480462853058
5.009497869018190385759 4409.77832297902659775 5.009497869018190385759 811.73386740095691039
6.009497869018190385759 4539.57220822363160551 6.009497869018190385759 702.50272026724610441
7.009497869018204596614 4635.07842400500612712 7.009497869018204596614 626.51167072543682934
8.009497869018190385759 4709.15484410207955079 8.009497869018190385759 573.02812175844485409
9.009497869018204596614 4769.00994588693811238 9.009497869018204596614 535.54569359848494514
10.009497869018190385759 4818.92932485991696012 10.009497869018190385759 508.80490920369931018
11.009497869018190385759 4861.59970456524479232 11.009497869018190385759 487.11432376716055614
12.009497869018190385759 4898.78143338774953008 12.009497869018190385759 470.57530046214242248
13.009497869018190385759 4931.67762599182879057 13.009497869018190385759 457.69643605873091019
14.009497869018204596614 4961.13965728687799128 14.009497869018204596614 447.46769141902598221
15.009497869018190385759 4987.78911450143004913 15.009497869018190385759 439.18983174101367695
16.009497869018190385759 5012.09244379217943788 16.009497869018190385759 432.37333365560328957
17.009497869018190385759 5034.40832674670218694 17.009497869018190385759 426.79906313915188321
18.009497869018190385759 5055.01842446617138194 18.009497869018190385759 421.91865245001025642
19.009497869018204596614 5074.14724856291195465 19.009497869018204596614 417.88207703653483804
20.009497869018190385759 5091.97757981979339093 20.009497869018190385759 414.17970915023420275
21.009497869018204596614 5108.66042640659634344 21.009497869018204596614 410.91825722443167024
22.009497869018190385759 5124.32102057152314956 22.009497869018190385759 408.01454424435280544
23.009497869018190385759 5139.06536217263146682 23.009497869018190385759 405.44961065289760427
24.009497869018190385759 5152.98386725647833373 24.009497869018190385759 403.07307047702704494
25.009497869018190385759 5166.15371381923705485 25.009497869018190385759 400.90095203254236367
26.009497869018204596614 5178.64239070515941421 26.009497869018204596614 398.94543009589386884
27.009497869018190385759 5190.50800518596224720 27.009497869018190385759 397.08239963968742359
28.009497869018190385759 5201.80218879304356960 28.009497869018190385759 395.34501192380992052
29.009497869018190385759 5212.56991603083406517 29.009497869018190385759 393.72839311988388999
30.009497869018190385759 5222.85155860464601574 30.009497869018190385759 392.18947326830726752
31.009497869018190385759 5232.68275312194145954 31.009497869018190385759 390.73281269071190991
32.009497869018190385759 5242.09558591941186023 32.009497869018190385759 389.34648028159267596
33.009497869018190385759 5251.11886447582674009 33.009497869018190385759 388.03032614060191463
34.009497869018190385759 5259.77846252128983906 34.009497869018190385759 386.75830521560158104
35.009497869018190385759 5268.09803290637682949 35.009497869018190385759 385.53097685413638374
36.009497869018190385759 5276.09881648273676547 36.009497869018190385759 384.34890860647112731
37.009497869018190385759 5283.80028953846340301 37.009497869018190385759 383.20517134375160140
38.009497869018190385759 5291.22026169856326305 38.009497869018190385759 382.09551289888707970
39.009497869018190385759 5298.37493790498683666 39.009497869018190385759 381.00807872383654740
40.009497869018190385759 5305.27928872869688348 40.009497869018190385759 379.93498054769702321
41.009497869018190385759 5311.94709974448960565 41.009497869018190385759 378.91667334454069760
42.009497869018190385759 5318.39102530200489127 42.009497869018190385759 377.89770014443439550
43.009497869018190385759 5324.62280766575531743 43.009497869018190385759 376.92334164691482101
44.009497869018218807469 5330.65333967778315127 44.009497869018218807469 375.94195363113345820
46.009497869018190385759 5342.15024985659420054 46.009497869018190385759 374.03735430343465396
48.009497869018190385759 5352.95436840864113037 48.009497869018190385759 372.20469162812759123
50.009497869018190385759 5363.12888062437832559 50.009497869018190385759 370.39039788551343690
52.009497869018190385759 5372.72904534418739786 52.009497869018190385759 368.62749180836777896
54.009497869018190385759 5381.80363914983627183 54.009497869018190385759 366.92449680288473246
56.009497869018190385759 5390.39565713817773940 56.009497869018190385759 365.25566895560780267
58.009497869018218807469 5398.54354325281474303 58.009497869018218807469 363.53992725682246601
60.009497869018190385759 5406.28137758460252371 60.009497869018190385759 361.93594143247139527
62.009497869018190385759 5413.63996500160919823 62.009497869018190385759 360.36062712843494182
64.009497869018190385759 5420.64681967257001816 64.009497869018190385759 358.81236418452346015
66.009497869018190385759 5427.32688545392556989 66.009497869018190385759 357.26479662547103544
68.009497869018190385759 5433.70281390275431477 68.009497869018190385759 355.72834493306652348
70.009497869018190385759 5439.79490268959307286 70.009497869018190385759 354.26624425673168162
72.009497869018218807469 5445.62202387724209984 72.009497869018218807469 352.80650700124482455
74.009497869018190385759 5451.20115671888106590 74.009497869018190385759 351.38988878889335865
76.009497869018190385759 5456.54783640078494500 76.009497869018190385759 350.00285437840005898
78.009497869018190385759 5461.67654482567468222 78.009497869018190385759 348.63496765225983154
80.009497869018190385759 5466.60034073570568580 80.009497869018190385759 347.30548350924027545
82.009497869018218807469 5471.33130016058385081 82.009497869018218807469 346.01012664141381947
84.009497869018190385759 5475.88075738395673397 84.009497869018190385759 344.75885887151554243
86.009497869018190385759 5480.25895334149117843 86.009497869018190385759 343.51240423591497120
88.009497869018190385759 5484.47537775712225994 88.009497869018190385759 342.31626890433335575
91.009497869018218807469 5490.51629151793531491 91.009497869018218807469 340.56403095429561745
94.009497869018190385759 5496.24064493822334043 94.009497869018190385759 338.88088794843122287
97.009497869018190385759 5501.67303852933036978 97.009497869018190385759 337.25408972481903902
99.504748934509109403734 5505.98508932914046454 99.504748934509109403734 336.21060819328130265
nan nan nan nan

