Time Pressure difference Time.1 Pressure.1 difference.1
(hr) (psi) (hr) (psi)
0.000200000000006639311 0.75070799032642443 0.000200000000006639311 0.59843756533109427
0.000399999999999067768 1.50099080859048795 0.000399999999999067768 1.56642728358820782
0.000600000000005707079 2.25091329476196389 0.000600000000005707079 2.29183791962196892
0.000799999999998135536 3.00050650680692943 0.000799999999998135536 3.03033844686345022
0.001007140329434719206 3.77652967850790455 0.001007140329434719206 3.80558903015506456
0.001267914553963578328 4.75302674729184549 0.001267914553963578328 4.78845466749776616
0.001596209851982166583 5.98166559937585962 0.001596209851982166583 6.02449962105701964
0.002009509145210586212 7.52736550423075634 0.002009509145210586212 7.57858596336976031
0.002529822128138903281 9.47166080676692168 0.002529822128138903281 9.53200165508521557
0.003184857364445292660 11.91689952547712217 0.003184857364445292660 11.98651667131174925
0.004009497869020606231 14.99147373620911239 0.004009497869020606231 15.06938398410042623
0.005047658755842121536 18.85631928050766248 0.005047658755842121536 18.93947383104556081
0.006354625877804664924 23.71296804843431971 0.006354625877804664924 23.79474876030082342
0.008000000000009777068 29.81348530064671465 0.008000000000009777068 29.88129554011254640
0.010071403294347192059 37.47267381345071158 0.010071403294347192059 37.50411776406998854
0.012679145539692626699 47.08296966071373646 0.012679145539692626699 47.03984327372698004
0.015962098519750611558 59.13248005239774585 0.015962098519750611558 58.95138763173284957
0.020095091452091651263 74.22660345095533785 0.020095091452091651263 73.80440006008660703
0.025298221281346400247 93.11359700333527201 0.025298221281346400247 92.28494489505256126
0.031848573644282396344 116.71427146224422700 0.031848573644282396344 115.21726001889688007
0.040094978690191851456 146.15563301092228699 0.040094978690191851456 143.57947673481638162
0.050476587558421215363 182.80766035851846141 0.050476587558421215363 178.51374783256116530
0.063546258777947173257 228.32137531429961541 0.063546258777947173257 221.32515674808638551
0.079999999999998294697 284.66476985695237545 0.079999999999998294697 273.46092014290576344
0.100714032943542974863 354.15079518205158138 0.100714032943542974863 336.45765709840117097
0.126791455396897845276 439.44829279223097274 0.126791455396897845276 411.83995090471938738
0.159620985197506115583 543.56229575182601366 0.159620985197506115583 500.94850284457322687
0.200950914520774404082 669.76455417542172199 0.200950914520774404082 604.67205239631960012
0.252982212813464002465 821.44885088321279909 0.252982212813464002465 723.05666896971638380
0.318485736442795541734 1001.87998077845895750 0.318485736442795541734 854.77491569256108050
0.400949786901819038576 1213.80335108884560213 0.400949786901819038576 996.46710769792139217
0.504765875584169521062 1458.89060782688488871 0.504765875584169521062 1142.03524280415422254
0.635462587779443310865 1737.02686585743435899 0.635462587779443310865 1282.09451273145259620
0.799999999999997157829 2045.51135986714052706 0.799999999999997157829 1403.95877134904208106
1.007140329435330272645 2378.35229243537196453 1.007140329435330272645 1492.67303477399650546
1.267914553968893187630 2725.96386112205527752 1.267914553968893187630 1533.52136723537842045
1.596209851975103788391 3075.63862912163540386 1.596209851975103788391 1515.91573761728136560
2.009509145207687197399 3413.04813410668111828 2.009509145207687197399 1437.61296797549175608
2.529822128134711078928 3724.64417450060864212 2.529822128134711078928 1307.31153451652676267
3.184857364427983839050 4000.30610368975021629 3.184857364427983839050 1143.73067057261346235
4.009497869018190385759 4235.24122879911374184 4.009497869018190385759 970.68492691187418586
5.009497869018190385759 4424.49393473535292287 5.009497869018190385759 814.44265672487563279
6.009497869018190385759 4554.72094751692475256 6.009497869018190385759 704.84700075757052673
7.009497869018204596614 4650.54587147109668877 7.009497869018204596614 628.60236595588878572
8.009497869018190385759 4724.86948763078544289 8.009497869018190385759 574.94034018478009784
9.009497869018204596614 4784.92432835374620481 9.009497869018204596614 537.33283161939198180
10.009497869018190385759 4835.01029034888142633 10.009497869018190385759 510.50281212651481155
11.009497869018190385759 4877.82306286746552360 11.009497869018190385759 488.73984431365840919
12.009497869018190385759 4915.12886864933261677 12.009497869018190385759 472.14562960717739770
13.009497869018190385759 4948.13483720203657867 13.009497869018190385759 459.22378790319828568
14.009497869018204596614 4977.69518450808027410 14.009497869018204596614 448.96090952164786358
15.009497869018190385759 5004.43357205816391797 15.009497869018190385759 440.65542628519949631
16.009497869018190385759 5028.81800255900452612 16.009497869018190385759 433.81618126513251354
17.009497869018190385759 5051.20835453339805099 17.009497869018190385759 428.22330917854839072
18.009497869018190385759 5071.88722899720414716 18.009497869018190385759 423.32661235807478306
19.009497869018204596614 5091.07988676723743993 19.009497869018204596614 419.27656672631195534
20.009497869018190385759 5108.96971857336302492 20.009497869018190385759 415.56184388599700696
21.009497869018204596614 5125.70823650583952258 21.009497869018204596614 412.28950836088694132
22.009497869018190385759 5141.42109071803406550 22.009497869018190385759 409.37610557108592957
23.009497869018190385759 5156.21463479389785789 23.009497869018190385759 406.80261269067142393
24.009497869018190385759 5170.17958650205036975 24.009497869018190385759 404.41814190242314453
25.009497869018190385759 5183.39338138481798524 25.009497869018190385759 402.23877500929171447
26.009497869018204596614 5195.92373349950412376 26.009497869018204596614 400.27672741545751478
27.009497869018190385759 5207.82894402418060054 27.009497869018190385759 398.40747994994222836
28.009497869018190385759 5219.16081678679165634 28.009497869018190385759 396.66429449975152011
29.009497869018190385759 5229.96447637353958271 29.009497869018190385759 395.04228097234175721
30.009497869018190385759 5240.28042921178075630 30.009497869018190385759 393.49822568188341165
31.009497869018190385759 5250.14443082980142208 31.009497869018190385759 392.03670416798900078
32.009497869018190385759 5259.58867463771912298 32.009497869018190385759 390.64574551056341534
33.009497869018190385759 5268.64206424604617496 33.009497869018190385759 389.32519930903544036
34.009497869018190385759 5277.33055972658894461 34.009497869018190385759 388.04893359785603479
35.009497869018190385759 5285.67789286045808694 35.009497869018190385759 386.81750959113571753
36.009497869018190385759 5293.70537538089956797 36.009497869018190385759 385.63149673307776766
37.009497869018190385759 5301.43254856918065343 37.009497869018190385759 384.48394277203993852
38.009497869018190385759 5308.87728148176211107 38.009497869018190385759 383.37058135127495007
39.009497869018190385759 5316.05583313715033000 39.009497869018190385759 382.27951836362683480
40.009497869018190385759 5322.98322406372062687 40.009497869018190385759 381.20283921470826272
41.009497869018190385759 5329.67328583929884189 41.009497869018190385759 380.18113387850468143
42.009497869018190385759 5336.13871504161033954 42.009497869018190385759 379.15876032289190789
43.009497869018190385759 5342.39129311959004554 43.009497869018190385759 378.18115035096457177
44.009497869018218807469 5348.44194926513955579 44.009497869018218807469 377.19648740298373468
46.009497869018190385759 5359.97722510639323446 46.009497869018190385759 375.28553234894110346
48.009497869018190385759 5370.81739744671176595 48.009497869018190385759 373.44675400285996147
50.009497869018190385759 5381.02586242846427922 50.009497869018190385759 371.62640588735609981
52.009497869018190385759 5390.65806329305542022 52.009497869018190385759 369.85761692007537249
54.009497869018190385759 5399.76293939171591774 54.009497869018190385759 368.14893895016911074
56.009497869018190385759 5408.38362929770482879 56.009497869018190385759 366.47454215568211566
58.009497869018218807469 5416.55870524364763696 58.009497869018218807469 364.75307495623343357
60.009497869018190385759 5424.32236104706498736 60.009497869018190385759 363.14373656517153677
62.009497869018190385759 5431.70550437313886505 62.009497869018190385759 361.56316537246755161
64.009497869018190385759 5438.73574120651574049 64.009497869018190385759 360.00973581139055568
66.009497869018190385759 5445.43809864231479878 66.009497869018190385759 358.45700395570065666
68.009497869018190385759 5451.83530382678964088 68.009497869018190385759 356.91542506076308428
70.009497869018190385759 5457.94772216464116354 70.009497869018190385759 355.44844529429587965
72.009497869018218807469 5463.79428869551975367 72.009497869018218807469 353.98383683550923706
74.009497869018190385759 5469.39203933307180705 74.009497869018190385759 352.56249130987964691
76.009497869018190385759 5474.75656110512591113 76.009497869018190385759 351.17082830847260766
78.009497869018190385759 5479.90238424111157656 78.009497869018190385759 349.79837688802928142
80.009497869018190385759 5484.84261106074063719 80.009497869018190385759 348.46445620170715074
82.009497869018218807469 5489.58935789193128585 82.009497869018218807469 347.16477667469996504
84.009497869018190385759 5494.15399684130079550 84.009497869018190385759 345.90933337275527037
86.009497869018190385759 5498.54680301893858996 86.009497869018190385759 344.65871926673554526
88.009497869018190385759 5502.77729781637935957 88.009497869018190385759 343.45859238232333155
91.009497869018218807469 5508.83837035503711377 91.009497869018218807469 341.70050714212970888
94.009497869018190385759 5514.58182617828333605 94.009497869018190385759 340.01174741878190844
97.009497869018190385759 5520.03234789038560848 97.009497869018190385759 338.37952050254369851
99.504748934509109403734 5524.35878818118453637 99.504748934509109403734 337.33255683018882110
nan nan nan nan

