Time Pressure difference Time.1 Pressure.1 difference.1
(hr) (psi) (hr) (psi)
0.000200000000006639311 0.09404656641561637 0.000200000000006639311 0.07497055973660049
0.000399999999999067768 0.18803986848195692 0.000399999999999067768 0.19623756435195952
0.000600000000005707079 0.28198802916641008 0.000600000000005707079 0.28711495001916015
0.000799999999998135536 0.37589493932281937 0.000799999999998135536 0.37963220010595333
0.001007140329434719206 0.47311291981307446 0.001007140329434719206 0.47675339291299595
0.001267914553963578328 0.59544570115740425 0.001267914553963578328 0.59988401045149398
0.001596209851982166583 0.74936608950052341 0.001596209851982166583 0.75473221416789715
0.002009509145210586212 0.94300698667192395 0.002009509145210586212 0.94942374042215394
0.002529822128138903281 1.18658278399629946 0.002529822128138903281 1.19414211421799266
0.003184857364445292660 1.49291535075267712 0.003184857364445292660 1.50163678919980903
0.004009497869020606231 1.87808928180890211 0.004009497869020606231 1.88784965654473180
0.005047658755842121536 2.36226616263566047 0.005047658755842121536 2.37268352872300214
0.006354625877804664924 2.97069333644465416 0.006354625877804664924 2.98093859192238675
0.008000000000009777068 3.73494882369520953 0.008000000000009777068 3.74344389804070676
0.010071403294347192059 4.69447022274936820 0.010071403294347192059 4.69840943164069724
0.012679145539692626699 5.89842081115371641 0.012679145539692626699 5.89301805979062987
0.015962098519750611558 7.40794927485692334 0.015962098519750611558 7.38526253036121094
0.020095091452091651263 9.29889821503098979 0.020095091452091651263 9.24600577249421995
0.025298221281346400247 11.66500716338901000 0.025298221281346400247 11.56119597909195029
0.031848573644282396344 14.62163267764256958 0.031848573644282396344 14.43409133274428768
0.040094978690191851456 18.30996289382951048 0.040094978690191851456 17.98722934704462162
0.050476587558421215363 22.90162485644410850 0.050476587558421215363 22.36369568190622203
0.063546258777947173257 28.60345389192445253 0.063546258777947173257 27.72698748617933262
0.079999999999998294697 35.66199444992862055 0.079999999999998294697 34.25840795581856923
0.100714032943542974863 44.36700649176476929 0.100714032943542974863 42.15046036820324815
0.126791455396897845276 55.05283490634379717 0.126791455396897845276 51.59414019094599979
0.159620985197506115583 68.09594170726865059 0.159620985197506115583 62.75740667565052888
0.200950914520774404082 83.90620246321802256 0.200950914520774404082 75.75159858180057881
0.252982212813464002465 102.90878065388363893 0.252982212813464002465 90.58248735429928900
0.318485736442795541734 125.51268051880914811 0.318485736442795541734 107.08377546924546664
0.400949786901819038576 152.06183888363588608 0.400949786901819038576 124.83457114175735114
0.504765875584169521062 182.76567481645008684 0.504765875584169521062 143.07093396548719966
0.635462587779443310865 217.60979583358101763 0.635462587779443310865 160.61716179451678954
0.799999999999997157829 256.25585772171490362 0.799999999999997157829 175.88397024660949342
1.007140329435330272645 297.95322510553990014 1.007140329435330272645 186.99784138521243904
1.267914553968893187630 341.50101586118870500 1.267914553968893187630 192.11520454279133219
1.596209851975103788391 385.30727837111396639 1.596209851975103788391 189.90962123143327744
2.009509145207687197399 427.57698354108089234 2.009509145207687197399 180.10007248473453956
2.529822128134711078928 466.61285112923371798 2.529822128134711078928 163.77627871437638873
3.184857364427983839050 501.14699525159852556 3.184857364427983839050 143.28333234446265010
4.009497869018190385759 530.57900094711737893 4.009497869018190385759 121.60465270625475398
5.009497869018190385759 554.28804282161286210 5.009497869018190385759 102.03106453426934763
6.009497869018190385759 570.60251338072350791 6.009497869018190385759 88.30123180222336998
7.009497869018204596614 582.60718788939459500 7.009497869018204596614 78.74952034702376125
8.009497869018190385759 591.91823958124030014 8.009497869018190385759 72.02689405862544447
9.009497869018204596614 599.44173958311910155 9.009497869018204596614 67.31553212083292692
10.009497869018190385759 605.71636675102399749 10.009497869018190385759 63.95434342604897182
11.009497869018190385759 611.07982938361806191 11.009497869018190385759 61.22794058474878653
12.009497869018190385759 615.75339485296512976 12.009497869018190385759 59.14906446298342502
13.009497869018190385759 619.88828891777166064 13.009497869018190385759 57.53025280827207411
14.009497869018204596614 623.59152533194344414 14.009497869018204596614 56.24454853209113736
15.009497869018190385759 626.94123463699838794 15.009497869018190385759 55.20406116433208865
16.009497869018190385759 629.99604688377780803 16.009497869018190385759 54.34725995893567330
17.009497869018190385759 632.80104663223289663 17.009497869018190385759 53.64660081726826490
18.009497869018190385759 635.39163733556995339 18.009497869018190385759 53.03315653709805844
19.009497869018204596614 637.79603902959843253 19.009497869018204596614 52.52577831493707805
20.009497869018190385759 640.03722638446788551 20.009497869018190385759 52.06040838039650964
21.009497869018204596614 642.13418040483350069 21.009497869018204596614 51.65045947314881403
22.009497869018190385759 644.10264218529698610 22.009497869018190385759 51.28547664028016584
23.009497869018190385759 645.95593540100935570 23.009497869018190385759 50.96307675614841770
24.009497869018190385759 647.70542491655396589 24.009497869018190385759 50.66435702325256329
25.009497869018190385759 649.36081163690073481 25.009497869018190385759 50.39133212422390784
26.009497869018204596614 650.93057858696658968 26.009497869018204596614 50.14553237022915511
27.009497869018190385759 652.42202957287406662 27.009497869018190385759 49.91135835293067657
28.009497869018190385759 653.84165443116125971 28.009497869018190385759 49.69297702713073051
29.009497869018190385759 655.19510624191798343 29.009497869018190385759 49.48977577591421095
30.009497869018190385759 656.48745953540048959 30.009497869018190385759 49.29634091136676943
31.009497869018190385759 657.72319366271347008 31.009497869018190385759 49.11324564410505644
32.009497869018190385759 658.90634172290720016 32.009497869018190385759 48.93899029123466704
33.009497869018190385759 660.04052467827420969 33.009497869018190385759 48.77355601099890237
34.009497869018190385759 661.12899473293191477 34.009497869018190385759 48.61366906491988260
35.009497869018190385759 662.17472493706407022 35.009497869018190385759 48.45939976030857821
36.009497869018190385759 663.18038516412593708 36.009497869018190385759 48.31081943551861713
37.009497869018190385759 664.14842349037405711 37.009497869018190385759 48.16705713219569418
38.009497869018190385759 665.08107850048679666 38.009497869018190385759 48.02757837327501989
39.009497869018190385759 665.98038707815737780 39.009497869018190385759 47.89089309876921874
40.009497869018190385759 666.84823095255035241 40.009497869018190385759 47.75600979075613850
41.009497869018190385759 667.68634290447982949 41.009497869018190385759 47.62801344597674813
42.009497869018190385759 668.49631352516848892 42.009497869018190385759 47.49993338856627645
43.009497869018190385759 669.27961876110168760 43.009497869018190385759 47.37746118587472210
44.009497869018218807469 670.03762779042222064 44.009497869018218807469 47.25410540636048751
46.009497869018190385759 671.48273440911577836 46.009497869018190385759 47.01470638074317776
48.009497869018190385759 672.84076043401159950 48.009497869018190385759 46.78434944825185227
50.009497869018190385759 674.11964795389849314 50.009497869018190385759 46.55630140273973439
52.009497869018190385759 675.32634274070426272 52.009497869018190385759 46.33471254098504488
54.009497869018190385759 676.46697577745453600 54.009497869018190385759 46.12065421437817037
56.009497869018190385759 677.54695134217365649 56.009497869018190385759 45.91089053613313098
58.009497869018218807469 678.57110165469202911 58.009497869018218807469 45.69523001114676219
60.009497869018190385759 679.54371041942169995 60.009497869018190385759 45.49361666503811819
62.009497869018190385759 680.46864966093642124 62.009497869018190385759 45.29560719189449713
64.009497869018190385759 681.34937777864331565 64.009497869018190385759 45.10099794532941786
66.009497869018190385759 682.18903009598841436 66.009497869018190385759 44.90647610531505052
68.009497869018190385759 682.99045380535164895 68.009497869018190385759 44.71335147657009657
70.009497869018190385759 683.75620022683426669 70.009497869018190385759 44.52957241491733242
72.009497869018218807469 684.48864148846314492 72.009497869018218807469 44.34609042396068901
74.009497869018190385759 685.18991180114971939 74.009497869018190385759 44.16802829048381795
76.009497869018190385759 685.86196386350241028 76.009497869018190385759 43.99368469939845028
78.009497869018190385759 686.50661798142527914 78.009497869018190385759 43.82174788065112381
80.009497869018190385759 687.12551557634560595 80.009497869018190385759 43.65463808291896441
82.009497869018218807469 687.72017454743706821 82.009497869018218807469 43.49181792044467443
84.009497869018190385759 688.29201955994119544 84.009497869018190385759 43.33453954669773367
86.009497869018190385759 688.84233785048786558 86.009497869018190385759 43.17786616091033380
88.009497869018190385759 689.37232223198532211 88.009497869018190385759 43.02751767095625013
91.009497869018218807469 690.13163619747138000 91.009497869018218807469 42.80726974175239974
94.009497869018190385759 690.85116004229053033 94.009497869018190385759 42.59570671654363139
97.009497869018190385759 691.53398593305269060 97.009497869018190385759 42.39122596096168394
99.504748934509109403734 692.07599009365162601 99.504748934509109403734 42.26006532351590295
nan nan nan nan

