Time Pressure difference Time.1 Pressure.1 difference.1
(hr) (psi) (hr) (psi)
0.000200000000006639311 0.86805813072113158 0.000200000000006639311 0.69198490093163112
0.000399999999999067768 1.73562462678478813 0.000399999999999067768 1.81129008512472378
0.000600000000005707079 2.60277446389881151 0.000600000000005707079 2.65009639707950528
0.000799999999998135536 3.46954355498850076 0.000799999999998135536 3.50403880274786994
0.001007140329434719206 4.36687411827466132 0.001007140329434719206 4.40047600715269738
0.001267914553963578328 5.49601651599267793 0.001267914553963578328 5.53698250354786037
0.001596209851982166583 6.91671532167297265 0.001596209851982166583 6.96624512723112144
0.002009509145210586212 8.70403793892758060 0.002009509145210586212 8.76326514389651834
0.002529822128138903281 10.95226410361186176 0.002529822128138903281 11.02203739052536591
0.003184857364445292660 13.77974080384993272 0.003184857364445292660 13.86024045252566950
0.004009497869020606231 17.33493027368747619 0.004009497869020606231 17.42501939624916218
0.005047658755842121536 21.80392573123003430 0.005047658755842121536 21.90007894210700456
0.006354625877804664924 27.41976238859977144 0.006354625877804664924 27.51432700331902481
0.008000000000009777068 34.47390816915135758 0.008000000000009777068 34.55231845713679206
0.010071403294347192059 43.33037559581939036 0.010071403294347192059 43.36673484248890986
0.012679145539692626699 54.44294607109138440 0.012679145539692626699 54.39307819789050313
0.015962098519750611558 68.37602737766169980 0.015962098519750611558 68.16662671828976272
0.020095091452091651263 85.82965343608249498 0.020095091452091651263 85.34145151072098656
0.025298221281346400247 107.66904841959943440 0.025298221281346400247 106.71086200170712743
0.031848573644282396344 134.95896356443540753 0.031848573644282396344 133.22794035444505312
0.040094978690191851456 169.00257786074493538 0.040094978690191851456 166.02371866342957674
0.050476587558421215363 211.38402411744428377 0.050476587558421215363 206.41889023210785581
0.063546258777947173257 264.01241070156817159 0.063546258777947173257 255.92254821314202218
0.079999999999998294697 329.16336470155357574 0.079999999999998294697 316.20813714972359776
0.100714032943542974863 409.51139620274921072 0.100714032943542974863 389.05247932775216668
0.126791455396897845276 508.14253811784578829 0.126791455396897845276 476.21847981554577700
0.159620985197506115583 628.53156814762132854 0.159620985197506115583 579.25641736905743073
0.200950914520774404082 774.46167406315396420 0.200950914520774404082 699.19395859130975168
0.252982212813464002465 949.85715240708532292 0.252982212813464002465 836.08437442950582863
0.318485736442795541734 1158.49314850546852540 0.318485736442795541734 988.39272402144274565
0.400949786901819038576 1403.54422969586039471 0.400949786901819038576 1152.23413894560098925
0.504765875584169521062 1686.94335250935819204 0.504765875584169521062 1320.55738164604531448
0.635462587779443310865 2008.55767304800906459 0.635462587779443310865 1482.51061727151318337
0.799999999999997157829 2365.26424428096152042 0.799999999999997157829 1623.42461032932465059
1.007140329435330272645 2750.13463526617806565 1.007140329435330272645 1726.00662446704927788
1.267914553968893187630 3152.08459772760943451 1.267914553968893187630 1773.24033927549839973
1.596209851975103788391 3556.42027735461851989 1.596209851975103788391 1752.88261012729981303
2.009509145207687197399 3946.57339675528692169 2.009509145207687197399 1662.33960709361190311
2.529822128134711078928 4306.87790909549312346 2.529822128134711078928 1511.66954600968665545
3.184857364427983839050 4625.63111546386971895 3.184857364427983839050 1322.51783748030561583
4.009497869018190385759 4897.29113263578165061 4.009497869018190385759 1122.42170595242214404
5.009497869018190385759 5116.12768728267474216 5.009497869018190385759 941.75575494905240248
6.009497869018190385759 5266.71169430172176362 6.009497869018190385759 815.02818380282280941
7.009497869018204596614 5377.51590237733125832 7.009497869018204596614 726.86504178713084912
8.009497869018190385759 5463.45773347994418145 8.009497869018190385759 664.81460622253393922
9.009497869018204596614 5532.90030429374564847 9.009497869018204596614 621.32831860202418284
10.009497869018190385759 5590.81566833024862717 10.009497869018190385759 590.30424949884138641
11.009497869018190385759 5640.32090307180260425 11.009497869018190385759 565.13930999905289809
12.009497869018190385759 5683.45832594373950997 12.009497869018190385759 545.95109942382043755
13.009497869018190385759 5721.62376408173349773 13.009497869018190385759 531.00932459316607037
14.009497869018204596614 5755.80496390457574307 14.009497869018204596614 519.14216034487662910
15.009497869018190385759 5786.72307722468394786 15.009497869018190385759 509.53836986193243774
16.009497869018190385759 5814.91926459982551023 16.009497869018190385759 501.63001891300802981
17.009497869018190385759 5840.80966050813185575 17.009497869018190385759 495.16287303018401644
18.009497869018190385759 5864.72104195574684127 18.009497869018190385759 489.50072803710861535
19.009497869018204596614 5886.91388237054161436 19.009497869018204596614 484.81758214583516065
20.009497869018190385759 5907.60023999115128390 20.009497869018190385759 480.52217646684567853
21.009497869018204596614 5926.95531117027803703 21.009497869018204596614 476.73831177428502315
22.009497869018190385759 5945.12438760411259864 22.009497869018190385759 473.36948792754168380
23.009497869018190385759 5962.23044799338731536 23.009497869018190385759 470.39370846604248300
24.009497869018190385759 5978.37839104394515743 24.009497869018190385759 467.63649889603919974
25.009497869018190385759 5993.65775696714536025 25.009497869018190385759 465.11645491650915574
26.009497869018204596614 6008.14684483368273504 26.009497869018204596614 462.84770143494694139
27.009497869018190385759 6021.91306942042137962 27.009497869018190385759 460.68625453191765473
28.009497869018190385759 6035.01633249293081462 28.009497869018190385759 458.67057556900311965
29.009497869018190385759 6047.50881248071254959 29.009497869018190385759 456.79501003786305091
30.009497869018190385759 6059.43734774710355850 30.009497869018190385759 455.00958911996053757
31.009497869018190385759 6070.84328309920510947 31.009497869018190385759 453.31960360001386334
32.009497869018190385759 6081.76384439816047234 32.009497869018190385759 451.71121127219259961
33.009497869018190385759 6092.23245344637143717 33.009497869018190385759 450.18423822541461732
34.009497869018190385759 6102.27912837564508663 34.009497869018190385759 448.70846756381803289
35.009497869018190385759 6111.93131070228082535 35.009497869018190385759 447.28454823010486052
36.009497869018190385759 6121.21364359454310033 36.009497869018190385759 445.91313868359213757
37.009497869018190385759 6130.14872301292234624 37.009497869018190385759 444.58619990159394320
38.009497869018190385759 6138.75721129210432991 38.009497869018190385759 443.29879861350303827
39.009497869018190385759 6147.05790904883360781 39.009497869018190385759 442.03718143377250271
40.009497869018190385759 6155.06818480982292385 40.009497869018190385759 440.79219656423583729
41.009497869018190385759 6162.80403229533112608 41.009497869018190385759 439.61077897481192167
42.009497869018190385759 6170.28013280310460686 42.009497869018190385759 438.42858871039499036
43.009497869018190385759 6177.51010944981408102 43.009497869018190385759 437.29815944130388061
44.009497869018218807469 6184.50659987088783964 44.009497869018218807469 436.15957467994684293
46.009497869018190385759 6197.84506184697147546 46.009497869018190385759 433.94990048774451452
48.009497869018190385759 6210.37976223605346604 48.009497869018190385759 431.82368561528033979
50.009497869018190385759 6222.18400722049591423 50.009497869018190385759 429.71878197396051746
52.009497869018190385759 6233.32190688986338500 52.009497869018190385759 427.67349717033096113
54.009497869018190385759 6243.85005076004381408 54.009497869018190385759 425.69771987253477619
56.009497869018190385759 6253.81832079546165915 56.009497869018190385759 423.76158255917573570
58.009497869018218807469 6263.27131881277637149 58.009497869018218807469 421.77101682854930687
60.009497869018190385759 6272.24858378280350735 60.009497869018190385759 419.91010780207750486
62.009497869018190385759 6280.78585483501501585 62.009497869018190385759 418.08246284199964293
64.009497869018190385759 6288.91505330199106538 64.009497869018190385759 416.28620227414677402
66.009497869018190385759 6296.66511849660128064 66.009497869018190385759 414.49074847649200137
68.009497869018190385759 6304.06233025647634349 68.009497869018190385759 412.70819106250098685
70.009497869018190385759 6311.13023749193052936 70.009497869018190385759 411.01189405981216396
72.009497869018218807469 6317.89073515457585017 72.009497869018218807469 409.31833904593804618
74.009497869018190385759 6324.36352219999298541 74.009497869018190385759 407.67480979623559278
76.009497869018190385759 6330.56662220914313366 76.009497869018190385759 406.06560302188131573
78.009497869018190385759 6336.51683676660650235 78.009497869018190385759 404.47861096919575630
80.009497869018190385759 6342.22931633742064150 80.009497869018190385759 402.93617274765034608
82.009497869018218807469 6347.71807126528256049 82.009497869018218807469 401.43332823914863638
84.009497869018190385759 6352.99625133644804009 84.009497869018190385759 399.98163493102413213
86.009497869018190385759 6358.07573785892782325 86.009497869018190385759 398.53552571530508430
88.009497869018190385759 6362.96754060142211529 88.009497869018190385759 397.14779584785281941
91.009497869018218807469 6369.97607569878346112 91.009497869018218807469 395.11488797033405262
94.009497869018190385759 6376.61734446114223829 94.009497869018190385759 393.16214252526555128
97.009497869018190385759 6382.91988785994635691 97.009497869018190385759 391.27476705560206938
99.504748934509109403734 6387.92263422724499833 99.504748934509109403734 390.06414276484144921
nan nan nan nan

