Time Pressure difference Time.1 Pressure.1 difference.1
(hr) (psi) (hr) (psi)
0.000200000000006639311 0.50934954554298417 0.000200000000006639311 0.40603524388318146
0.000399999999999067768 1.01841061514121800 0.000399999999999067768 1.06280875560530297
0.000600000000005707079 1.52722720221099961 0.000600000000005707079 1.55499424258164631
0.000799999999998135536 2.03582037934128701 0.000799999999998135536 2.05606111915790679
0.001007140329434719206 2.56234607898762468 0.001007140329434719206 2.58206262356419014
0.001267914553963578328 3.22489176202063188 0.001267914553963578328 3.24892933094083469
0.001596209851982166583 4.05851368826832193 0.001596209851982166583 4.08757623956418659
0.002009509145210586212 5.10725907825856140 0.002009509145210586212 5.14201176228635681
0.002529822128138903281 6.42644835226314370 0.002529822128138903281 6.46738914957001310
0.003184857364445292660 8.08552384655432199 0.003184857364445292660 8.13275853973701679
0.004009497869020606231 10.17159858820396501 0.004009497869020606231 10.22446008677323803
0.005047658755842121536 12.79386629675242659 0.005047658755842121536 12.85028601396882841
0.006354625877804664924 16.08906479561175473 0.006354625877804664924 16.14455237395133480
0.008000000000009777068 20.22821840797759663 0.008000000000009777068 20.27422712921161718
0.010071403294347192059 25.42491837453640358 0.010071403294347192059 25.44625285100979539
0.012679145539692626699 31.94542952589446827 0.012679145539692626699 31.91616860700765557
0.015962098519750611558 40.12092881603926742 0.015962098519750611558 39.99805901399169272
0.020095091452091651263 50.36217440353066621 0.020095091452091651263 50.07571267934923043
0.025298221281346400247 63.17685295569976489 0.025298221281346400247 62.61461893101127174
0.031848573644282396344 79.18972742227656170 0.031848573644282396344 78.17401677557083417
0.040094978690191851456 99.16546275242177444 0.040094978690191851456 97.41756071142752660
0.050476587558421215363 124.03357886852913339 0.050476587558421215363 121.12019254271334034
0.063546258777947173257 154.91428125537845517 0.063546258777947173257 150.16740125258186822
0.079999999999998294697 193.14283719784350524 0.079999999999998294697 185.54111211469881937
0.100714032943542974863 240.28856613238974660 0.100714032943542974863 228.28390925079992257
0.126791455396897845276 298.16225630692389359 0.126791455396897845276 279.43021059167210751
0.159620985197506115583 368.80279933494176703 0.159620985197506115583 339.88967155308068868
0.200950914520774404082 454.43005227866751738 0.200950914520774404082 410.26529497399957336
0.252982212813464002465 557.34667044404238823 0.252982212813464002465 490.58833859142623623
0.318485736442795541734 679.76779183638223003 0.318485736442795541734 579.95814678918782192
0.400949786901819038576 823.55615395385098054 0.400949786901819038576 676.09519945801321228
0.504765875584169521062 989.84595564307483073 0.504765875584169521062 774.86204944139956297
0.635462587779443310865 1178.55924823142981950 0.635462587779443310865 869.89117715260420027
0.799999999999997157829 1387.86358341318168641 0.799999999999997157829 952.57513089314170429
1.007140329435330272645 1613.69357313796831477 1.007140329435330272645 1012.76707015707984283
1.267914553968893187630 1849.54532484112860402 1.267914553968893187630 1040.48234672732996842
1.596209851975103788391 2086.79694126656431763 1.596209851975103788391 1028.53706366050573706
2.009509145207687197399 2315.72667192160633931 2.009509145207687197399 975.40924212971287943
2.529822128134711078928 2527.14216717779663668 2.529822128134711078928 887.00073073626856512
3.184857364427983839050 2714.17664684936517006 3.184857364427983839050 776.01238402487740586
4.009497869018190385759 2873.57830601447631125 4.009497869018190385759 658.60218987812311298
5.009497869018190385759 3001.98479829050529588 5.009497869018190385759 552.59302207940561402
6.009497869018190385759 3090.34281583188294462 6.009497869018190385759 478.23322002620091098
7.009497869018204596614 3155.35928308238408135 7.009497869018204596614 426.50182701219949877
8.009497869018190385759 3205.78727985592149707 8.009497869018190385759 390.09255897237852651
9.009497869018204596614 3246.53402322892816301 9.009497869018204596614 364.57615626504207285
10.009497869018190385759 3280.51695974890844809 10.009497869018190385759 346.37219625435369608
11.009497869018190385759 3309.56509365287001856 11.009497869018190385759 331.60619148554201274
12.009497869018190385759 3334.87679336296150723 12.009497869018190385759 320.34714558713147881
13.009497869018190385759 3357.27108688209091270 13.009497869018190385759 311.57977627134965815
14.009497869018204596614 3377.32755312521612723 14.009497869018204596614 304.61649293486527768
15.009497869018190385759 3395.46934157383202546 15.009497869018190385759 298.98128701390476181
16.009497869018190385759 3412.01398843249580750 16.009497869018190385759 294.34091234397016024
17.009497869018190385759 3427.20566848607541033 17.009497869018190385759 290.54619203688650941
18.009497869018190385759 3441.23612433069729377 18.009497869018190385759 287.22382124516826707
19.009497869018204596614 3454.25819368242673590 19.009497869018204596614 284.47589671452647053
20.009497869018190385759 3466.39630572826854404 20.009497869018190385759 281.95548609559881470
21.009497869018204596614 3477.75326024564719773 21.009497869018204596614 279.73523183687677829
22.009497869018190385759 3488.41430988851107031 22.009497869018190385759 277.75851065355271885
23.009497869018190385759 3498.45161473820962783 23.009497869018190385759 276.01241570586574881
24.009497869018190385759 3507.92672609673491024 24.009497869018190385759 274.39457078080152996
25.009497869018190385759 3516.89218337861302643 25.009497869018190385759 272.91588725685869576
26.009497869018204596614 3525.39393004622615990 26.009497869018204596614 271.58465319097558677
27.009497869018190385759 3533.47152299645085805 27.009497869018190385759 270.31638329197852499
28.009497869018190385759 3541.16011072451965447 28.009497869018190385759 269.13364549207085474
29.009497869018190385759 3548.49030991198060292 29.009497869018190385759 268.03312190141150495
30.009497869018190385759 3555.48960385544341989 30.009497869018190385759 266.98549236952624142
31.009497869018190385759 3562.18225240336869319 31.009497869018190385759 265.99386136453358631
32.009497869018190385759 3568.59009853468296569 32.009497869018190385759 265.05010671004970391
33.009497869018190385759 3574.73275312481200672 33.009497869018190385759 264.15412636045419958
34.009497869018190385759 3580.62782988101116644 34.009497869018190385759 263.28818997992010509
35.009497869018190385759 3586.29143063259471091 35.009497869018190385759 262.45267834786591266
36.009497869018190385759 3591.73801522517806006 36.009497869018190385759 261.64797782776452095
37.009497869018190385759 3596.98084226645096351 37.009497869018190385759 260.86937137082975369
38.009497869018190385759 3602.03203577254816992 38.009497869018190385759 260.11396428711776707
39.009497869018190385759 3606.90262736134809529 39.009497869018190385759 259.37368651722795221
40.009497869018190385759 3611.60280834478589895 40.009497869018190385759 258.64316807028984613
41.009497869018190385759 3616.14196334107646180 41.009497869018190385759 257.94994892865287284
42.009497869018190385759 3620.52870687967379126 42.009497869018190385759 257.25627640533241447
43.009497869018190385759 3624.77103258224906313 43.009497869018190385759 256.59297562615341803
44.009497869018218807469 3628.87635582069378870 44.009497869018218807469 255.92488945745679985
46.009497869018190385759 3636.70295095910523742 46.009497869018190385759 254.62832128331700687
48.009497869018190385759 3644.05792376650515507 48.009497869018190385759 253.38072444539940875
50.009497869018190385759 3650.98428803350316230 50.009497869018190385759 252.14563237590013500
52.009497869018190385759 3657.51966156912385486 52.009497869018190385759 250.94552278834376580
54.009497869018190385759 3663.69724934338182720 54.009497869018190385759 249.78619804601277110
56.009497869018190385759 3669.54632054345393044 56.009497869018190385759 248.65013281516348798
58.009497869018218807469 3675.09304612983578409 58.009497869018218807469 247.48213067983908786
60.009497869018190385759 3680.36062634235440783 60.009497869018190385759 246.39020707082590889
62.009497869018190385759 3685.37003179197427016 62.009497869018190385759 245.31780178264980918
64.009497869018190385759 3690.13999292504195182 64.009497869018190385759 244.26381188089914076
66.009497869018190385759 3694.68749043137086119 66.009497869018190385759 243.21029536683900574
68.009497869018190385759 3699.02794450332112319 68.009497869018190385759 242.16434605009646930
70.009497869018190385759 3703.17517290993419010 70.009497869018190385759 241.16901166309207838
72.009497869018218807469 3707.14202292866775679 72.009497869018218807469 240.17528618994637668
74.009497869018190385759 3710.94005329472247467 74.009497869018190385759 239.21091428120439559
76.009497869018190385759 3714.57983968551798171 76.009497869018190385759 238.26668173479515644
78.009497869018190385759 3718.07124074895773447 78.009497869018190385759 237.33548409697775128
80.009497869018190385759 3721.42314630728787961 80.009497869018190385759 236.43042926324255859
82.009497869018218807469 3724.64377719496906138 82.009497869018218807469 235.54860679037292925
84.009497869018190385759 3727.74084929808850575 84.009497869018190385759 234.69679825291157726
86.009497869018190385759 3730.72133419910232988 86.009497869018190385759 233.84826628740816545
88.009497869018190385759 3733.59169208827461262 88.009497869018190385759 233.03398950995773475
91.009497869018218807469 3737.70408276860598562 91.009497869018218807469 231.84114231816343477
94.009497869018190385759 3741.60097297240554326 94.009497869018190385759 230.69533195154602367
97.009497869018190385759 3745.29910965511726317 97.009497869018190385759 229.58787865582786480
99.504748934509109403734 3748.23456581694517809 99.504748934509109403734 228.87752192913035287
nan nan nan nan

