Time Pressure difference Time.1 Pressure.1 difference.1
(hr) (psi) (hr) (psi)
0.000200000000006639311 0.05659439394922047 0.000200000000006639311 0.04511502709813128
0.000399999999999067768 0.11315673501569089 0.000399999999999067768 0.11808986173392255
0.000600000000005707079 0.16969191135677775 0.000600000000005707079 0.17277713806462738
0.000799999999998135536 0.22620226437125410 0.000799999999998135536 0.22845123546198959
0.001007140329434719206 0.28470511988751385 0.001007140329434719206 0.28689584706268784
0.001267914553963578328 0.35832130689118130 0.001267914553963578328 0.36099214788231493
0.001596209851982166583 0.45094596536314685 0.001596209851982166583 0.45417513772935408
0.002009509145210586212 0.56747323091761792 0.002009509145210586212 0.57133464025403968
0.002529822128138903281 0.71404981691812708 0.002529822128138903281 0.71859879439666818
0.003184857364445292660 0.89839153850603581 0.003184857364445292660 0.90363983774855761
0.004009497869020606231 1.13017762091155172 0.004009497869020606231 1.13605112075258208
0.005047658755842121536 1.42154069963915841 0.005047658755842121536 1.42780955710764768
0.006354625877804664924 1.78767386617908408 0.006354625877804664924 1.79383915266125937
0.008000000000009777068 2.24757982310862170 0.008000000000009777068 2.25269190324573509
0.010071403294347192059 2.82499093050404504 0.010071403294347192059 2.82736142788997702
0.012679145539692626699 3.54949216954382951 0.012679145539692626699 3.54624095633418435
0.015962098519750611558 4.45788097955991880 0.015962098519750611558 4.44422877933241001
0.020095091452091651263 5.59579715594785210 0.020095091452091651263 5.56396807548324723
0.025298221281346400247 7.01965032841108538 0.025298221281346400247 6.95717988122347464
0.031848573644282396344 8.79885860247517471 0.031848573644282396344 8.68600186395231511
0.040094978690191851456 11.01838475026908526 0.040094978690191851456 10.82417341238083530
0.050476587558421215363 13.78150876316990647 0.050476587558421215363 13.45779917141259219
0.063546258777947173257 17.21269791726427556 0.063546258777947173257 16.68526680584243493
0.079999999999998294697 21.46031524420483194 0.079999999999998294697 20.61567912385542201
0.100714032943542974863 26.69872957026552740 0.100714032943542974863 25.36487880564443742
0.126791455396897845276 33.12913958965820882 0.126791455396897845276 31.04780117685245600
0.159620985197506115583 40.97808881499352651 0.159620985197506115583 37.76551906145341775
0.200950914520774404082 50.49222803096306222 0.200950914520774404082 45.58503277488884464
0.252982212813464002465 61.92740782711581460 0.252982212813464002465 54.50981539904736195
0.318485736442795541734 75.52975464848692866 0.318485736442795541734 64.43979408768753103
0.400949786901819038576 91.50623932820565187 0.400949786901819038576 75.12168882866814101
0.504765875584169521062 109.98288396034165260 0.504765875584169521062 86.09578327126662600
0.635462587779443310865 130.95102758126998310 0.635462587779443310865 96.65457523917822868
0.799999999999997157829 154.20706482368686352 0.799999999999997157829 105.84168121034907983
1.007140329435330272645 179.29928590421872059 1.007140329435330272645 112.52967446189775558
1.267914553968893187630 205.50503609345869904 1.267914553968893187630 115.60914963636999175
1.596209851975103788391 231.86632680739603529 1.596209851975103788391 114.28189596227841207
2.009509145207687197399 257.30296354684514881 2.009509145207687197399 108.37880468107920251
2.529822128134711078928 280.79357413086631823 2.529822128134711078928 98.55563674847428501
3.184857364427983839050 301.57518298326277773 3.184857364427983839050 86.22359822498637527
4.009497869018190385759 319.28647844605291084 4.009497869018190385759 73.17802109756922846
5.009497869018190385759 333.55386647672281697 5.009497869018190385759 61.39922467548951346
6.009497869018190385759 343.37142398132033350 6.009497869018190385759 53.13702444735565678
7.009497869018204596614 350.59547589804270729 7.009497869018204596614 47.38909189024438717
8.009497869018190385759 356.19858665065788728 8.009497869018190385759 43.34361766359761248
9.009497869018204596614 360.72600258099197390 9.009497869018204596614 40.50846180722689382
10.009497869018190385759 364.50188441654546523 10.009497869018190385759 38.48579958381708366
11.009497869018190385759 367.72945485031891621 11.009497869018190385759 36.84513238728244744
12.009497869018190385759 370.54186592921791998 12.009497869018190385759 35.59412728745905241
13.009497869018190385759 373.03012076467672387 13.009497869018190385759 34.61997514126107234
14.009497869018204596614 375.25861701391289671 14.009497869018204596614 33.84627699276281021
15.009497869018190385759 377.27437128598131721 15.009497869018190385759 33.22014300154497590
16.009497869018190385759 379.11266538138841042 16.009497869018190385759 32.70454581599668842
17.009497869018190385759 380.80062983178612512 17.009497869018190385759 32.28291022632071616
18.009497869018190385759 382.35956937007750867 18.009497869018190385759 31.91375791612980706
19.009497869018204596614 383.80646596471405019 19.009497869018204596614 31.60843296828072013
20.009497869018190385759 385.15514508091871448 20.009497869018190385759 31.32838734395542346
21.009497869018204596614 386.41702891618302829 21.009497869018204596614 31.08169242631963769
22.009497869018190385759 387.60158998761238536 22.009497869018190385759 30.86205673928363780
23.009497869018190385759 388.71684608202332356 23.009497869018190385759 30.66804618954064310
24.009497869018190385759 389.76963623297058348 24.009497869018190385759 30.48828564231127913
25.009497869018190385759 390.76579815317921884 25.009497869018190385759 30.32398747298429598
26.009497869018204596614 391.71043667180293824 26.009497869018204596614 30.17607257677506638
27.009497869018190385759 392.60794699960564458 27.009497869018190385759 30.03515369910872579
28.009497869018190385759 393.46223452494660933 28.009497869018190385759 29.90373838800786999
29.009497869018190385759 394.27670110133118442 29.009497869018190385759 29.78145798904571961
30.009497869018190385759 395.05440042838262116 30.009497869018190385759 29.66505470772513675
31.009497869018190385759 395.79802804481875000 31.009497869018190385759 29.55487348494817113
32.009497869018190385759 396.51001094829814519 32.009497869018190385759 29.45001185667219090
33.009497869018190385759 397.19252812497916238 33.009497869018190385759 29.35045848449491501
34.009497869018190385759 397.84753665344572937 34.009497869018190385759 29.25424333110222719
35.009497869018190385759 398.47682562584384414 35.009497869018190385759 29.16140870531843987
36.009497869018190385759 399.08200169168640059 36.009497869018190385759 29.07199753641828011
37.009497869018190385759 399.66453802960569419 37.009497869018190385759 28.98548570786998013
38.009497869018190385759 400.22578175250532695 38.009497869018190385759 28.90155158745752928
39.009497869018190385759 400.76695859570531866 39.009497869018190385759 28.81929850191421849
40.009497869018190385759 401.28920092719846480 40.009497869018190385759 28.73812978558776265
41.009497869018190385759 401.79355148234179751 41.009497869018190385759 28.66110543651697995
42.009497869018190385759 402.28096743107482780 42.009497869018190385759 28.58403071170360121
43.009497869018190385759 402.75233695358326713 43.009497869018190385759 28.51033062512815519
44.009497869018218807469 403.20848398007706237 44.009497869018218807469 28.43609882860631188
46.009497869018190385759 404.07810566212276626 46.009497869018190385759 28.29203569814633568
48.009497869018190385759 404.89532486294501723 48.009497869018190385759 28.15341382726660058
50.009497869018190385759 405.66492089261146248 50.009497869018190385759 28.01618137510001816
52.009497869018190385759 406.39107350768040305 52.009497869018190385759 27.88283586537153269
54.009497869018190385759 407.07747214926467905 54.009497869018190385759 27.75402200511252815
56.009497869018190385759 407.72736894927271578 56.009497869018190385759 27.62779253501816612
58.009497869018218807469 408.34367179220402022 58.009497869018218807469 27.49801451998212087
60.009497869018190385759 408.92895848248377888 60.009497869018190385759 27.37668967453621605
62.009497869018190385759 409.48555908799716008 62.009497869018190385759 27.25753353140553514
64.009497869018190385759 410.01555476944906786 64.009497869018190385759 27.14042354232212872
66.009497869018190385759 410.52083227015231159 66.009497869018190385759 27.02336615187100222
68.009497869018190385759 411.00310494481345813 68.009497869018190385759 26.90714956112183032
70.009497869018190385759 411.46390810110381153 70.009497869018190385759 26.79655685145467459
72.009497869018218807469 411.90466921429640479 72.009497869018218807469 26.68614290999404659
74.009497869018190385759 412.32667258830252877 74.009497869018190385759 26.57899047568937689
76.009497869018190385759 412.73109329839087422 76.009497869018190385759 26.47407574831057531
78.009497869018190385759 413.11902674988419903 78.009497869018190385759 26.37060934410864022
80.009497869018190385759 413.49146070080979598 80.009497869018190385759 26.27004769591584221
82.009497869018218807469 413.84930857721877828 82.009497869018218807469 26.17206742115254769
84.009497869018190385759 414.19342769978760543 84.009497869018190385759 26.07742202810128873
86.009497869018190385759 414.52459268878914145 86.009497869018190385759 25.98314069860090569
88.009497869018190385759 414.84352134314161731 88.009497869018190385759 25.89266550110641418
91.009497869018218807469 415.30045364095616378 91.009497869018218807469 25.76012692424037809
94.009497869018190385759 415.73344144137843159 94.009497869018190385759 25.63281466128289665
97.009497869018190385759 416.14434551723525146 97.009497869018190385759 25.50976429509198695
99.504748934509109403734 416.47050731299390236 99.504748934509109403734 25.43083576990337136
nan nan nan nan

