Time Pressure difference Time.1 Pressure.1 difference.1
(hr) (psi) (hr) (psi)
0.000200000000006639311 0.58009253797950977 0.000200000000006639311 0.46242902775584555
0.000399999999999067768 1.15985653391083154 0.000399999999999067768 1.21042108277270599
0.000600000000005707079 1.73934209140697194 0.000600000000005707079 1.77096566516243037
0.000799999999998135536 2.31857320980535464 0.000799999999998135536 2.34162516348539329
0.001007140329434719206 2.91822747884701705 0.001007140329434719206 2.94068243239255001
0.001267914553963578328 3.67279339563460860 0.001267914553963578328 3.70016951579372799
0.001596209851982166583 4.62219614497225528 0.001596209851982166583 4.65529516172587865
0.002009509145210586212 5.81660061690558372 0.002009509145210586212 5.85618006260390533
0.002529822128138903281 7.31901062341080344 0.002529822128138903281 7.36563764256584896
0.003184857364445292660 9.20851326968686656 0.003184857364445292660 9.26230833692271460
0.004009497869020606231 11.58432061434340454 0.004009497869020606231 11.64452398771396524
0.005047658755842121536 14.57079217130137394 0.005047658755842121536 14.63504796035338806
0.006354625877804664924 18.32365712833561133 0.006354625877804664924 18.38685131477791046
0.008000000000009777068 23.03769318686337186 0.008000000000009777068 23.09009200826878683
0.010071403294347192059 28.95615703766645765 0.010071403294347192059 28.98045463587226322
0.012679145539692626699 36.38229473782425316 0.012679145539692626699 36.34896980242538689
0.015962098519750611558 45.69328004048917080 0.015962098519750611558 45.55334498815720679
0.020095091452091651263 57.35692084846548511 0.020095091452091651263 57.03067277370329435
0.025298221281346400247 71.95141586621362251 0.025298221281346400247 71.31109378254062392
0.031848573644282396344 90.18830067537054163 0.031848573644282396344 89.03151910551123649
0.040094978690191851456 112.93844369025812568 0.040094978690191851456 110.94777747690355341
0.050476587558421215363 141.26046482249154224 0.050476587558421215363 137.94244150697906548
0.063546258777947173257 176.43015365195878985 0.063546258777947173257 171.02398475988493942
0.079999999999998294697 219.96823125309956026 0.079999999999998294697 211.31071101951806668
0.100714032943542974863 273.66197809522162743 0.100714032943542974863 259.99000775785543738
0.126791455396897845276 339.57368079399668659 0.126791455396897845276 318.23996206273767484
0.159620985197506115583 420.02541035368369648 0.159620985197506115583 387.09657037989745731
0.200950914520774404082 517.54533731737126345 0.200950914520774404082 467.24658594261063627
0.252982212813464002465 634.75593022793714226 0.252982212813464002465 558.72560784023539782
0.318485736442795541734 774.17998514699104362 0.318485736442795541734 660.50788939879714690
0.400949786901819038576 937.93895311410801696 0.400949786901819038576 769.99731049384843118
0.504765875584169521062 1127.32456059350192845 0.504765875584169521062 882.48177853048287034
0.635462587779443310865 1342.24803270801749022 0.635462587779443310865 990.70939620157696481
0.799999999999997157829 1580.62241444279038660 0.799999999999997157829 1084.87723240607806474
1.007140329435330272645 1837.81768051824155918 1.007140329435330272645 1153.42916323445183480
1.267914553968893187630 2106.42661995795197072 1.267914553968893187630 1184.99378377279231245
1.596209851975103788391 2376.62984977580890700 1.596209851975103788391 1171.38943361335373083
2.009509145207687197399 2637.35537635516311639 2.009509145207687197399 1110.88274798106181152
2.529822128134711078928 2878.13413484137981868 2.529822128134711078928 1010.19527667186150666
3.184857364427983839050 3091.14562557844328694 3.184857364427983839050 883.79188180611026837
4.009497869018190385759 3272.68640407204247822 4.009497869018190385759 750.07471625008463434
5.009497869018190385759 3418.92713138640920079 5.009497869018190385759 629.34205292376759644
6.009497869018190385759 3519.55709580853317675 6.009497869018190385759 544.65450058539556721
7.009497869018204596614 3593.60362795493801968 7.009497869018204596614 485.73819187500498629
8.009497869018190385759 3651.03551316924358616 8.009497869018190385759 444.27208105187554565
9.009497869018204596614 3697.44152645516851408 9.009497869018204596614 415.21173352407566881
10.009497869018190385759 3736.14431526959060648 10.009497869018190385759 394.47944573412507907
11.009497869018190385759 3769.22691221576860698 11.009497869018190385759 377.66260696964508270
12.009497869018190385759 3798.05412577448396405 12.009497869018190385759 364.83980469645524636
13.009497869018190385759 3823.55873783793686016 13.009497869018190385759 354.85474519792597903
14.009497869018204596614 3846.40082439260731917 14.009497869018204596614 346.92433917581877267
15.009497869018190385759 3867.06230568130877145 15.009497869018190385759 340.50646576583596925
16.009497869018190385759 3885.90482015923134895 16.009497869018190385759 335.22159461396603319
17.009497869018190385759 3903.20645577580808094 17.009497869018190385759 330.89982981978744192
18.009497869018190385759 3919.18558604329473383 18.009497869018190385759 327.11601864033053744
19.009497869018204596614 3934.01627613831988128 19.009497869018204596614 323.98643792487735027
20.009497869018190385759 3947.84023707941696557 20.009497869018190385759 321.11597027554307715
21.009497869018204596614 3960.77454639087636679 21.009497869018204596614 318.58734736977629609
22.009497869018190385759 3972.91629737302628200 22.009497869018190385759 316.33608157765729629
23.009497869018190385759 3984.34767234073888176 23.009497869018190385759 314.34747344279156778
24.009497869018190385759 3995.13877138794850907 24.009497869018190385759 312.50492783369060135
25.009497869018190385759 4005.34943107008712104 25.009497869018190385759 310.82087159808901333
26.009497869018204596614 4015.03197588598004586 26.009497869018204596614 309.30474391194445616
27.009497869018190385759 4024.23145674595753007 27.009497869018190385759 307.86032541586445177
28.009497869018190385759 4032.98790388070301560 28.009497869018190385759 306.51331847708070200
29.009497869018190385759 4041.33618628864451239 29.009497869018190385759 305.25994438771863315
30.009497869018190385759 4049.30760439092182423 30.009497869018190385759 304.06681075418265436
31.009497869018190385759 4056.92978745939171858 31.009497869018190385759 302.93745322071879400
32.009497869018190385759 4064.22761222005601667 32.009497869018190385759 301.86262153088995319
33.009497869018190385759 4071.22341328103584601 33.009497869018190385759 300.84219946607288421
34.009497869018190385759 4077.93725069781885395 34.009497869018190385759 299.85599414379788641
35.009497869018190385759 4084.38746266489897607 35.009497869018190385759 298.90443922951396871
36.009497869018190385759 4090.59051733978549237 36.009497869018190385759 297.98797474828734266
37.009497869018190385759 4096.56151480345852178 37.009497869018190385759 297.10122850566727948
38.009497869018190385759 4102.31426296317931701 38.009497869018190385759 296.24090377143971864
39.009497869018190385759 4107.86132560597980046 39.009497869018190385759 295.39780964462073598
40.009497869018190385759 4113.21430950378362468 40.009497869018190385759 294.56583030227454856
41.009497869018190385759 4118.38390269400406396 41.009497869018190385759 293.77633072429904360
42.009497869018190385759 4123.37991616851741128 42.009497869018190385759 292.98631479496191332
43.009497869018190385759 4128.21145377422817546 43.009497869018190385759 292.23088890756355340
44.009497869018218807469 4132.88696079578949139 44.009497869018218807469 291.47001299321470924
46.009497869018190385759 4141.80058303675832576 46.009497869018190385759 289.99336590599995134
48.009497869018190385759 4150.17707984518619924 48.009497869018190385759 288.57249172948269234
50.009497869018190385759 4158.06543914926714933 50.009497869018190385759 287.16585909477515770
52.009497869018190385759 4165.50850345372418815 52.009497869018190385759 285.79906762005822429
54.009497869018190385759 4172.54408952996254811 54.009497869018190385759 284.47872555240343218
56.009497869018190385759 4179.20553173004464043 56.009497869018190385759 283.18487348393620096
58.009497869018218807469 4185.52263587009110779 58.009497869018218807469 281.85464882981671053
60.009497869018190385759 4191.52182444545906037 60.009497869018190385759 280.61106916399614875
62.009497869018190385759 4197.22698065196982498 62.009497869018190385759 279.38971869690675476
64.009497869018190385759 4202.65943638685257611 64.009497869018190385759 278.18934130880182920
66.009497869018190385759 4207.83853076906143542 66.009497869018190385759 276.98950305667779048
68.009497869018190385759 4212.78182568433749111 68.009497869018190385759 275.79828300149875986
70.009497869018190385759 4217.50505803631403978 70.009497869018190385759 274.66470772741041628
72.009497869018218807469 4222.02285944653795013 72.009497869018218807469 273.53296482743894558
74.009497869018190385759 4226.34839403010028036 74.009497869018190385759 272.43465237581608562
76.009497869018190385759 4230.49370630850626185 76.009497869018190385759 271.35927642018339156
78.009497869018190385759 4234.47002418631291221 78.009497869018190385759 270.29874577711353822
80.009497869018190385759 4238.28747218329954194 80.009497869018190385759 269.26798888313732050
82.009497869018218807469 4241.95541291649260529 82.009497869018218807469 268.26369106681363519
84.009497869018190385759 4245.48263392282296991 84.009497869018190385759 267.29357578803819706
86.009497869018190385759 4248.87707506008882774 86.009497869018190385759 266.32719216065925139
88.009497869018190385759 4252.14609376720181899 88.009497869018190385759 265.39982138634076136
91.009497869018218807469 4256.82964981980148877 91.009497869018218807469 264.04130097346387629
94.009497869018190385759 4261.26777477412906592 94.009497869018190385759 262.73635027814964360
97.009497869018190385759 4265.47954155166189594 97.009497869018190385759 261.47508402469287603
99.504748934509109403734 4268.82269995818751340 99.504748934509109403734 260.66606664150953065
nan nan nan nan

