Time Pressure difference Time.1 Pressure.1 difference.1
(hr) (psi) (hr) (psi)
0.000200000000006639311 0.87471629471515755 0.000200000000006639311 0.69729255117847011
0.000399999999999067768 1.74893718384545771 0.000399999999999067768 1.82518301003459693
0.000600000000005707079 2.62273821817607944 0.000600000000005707079 2.67042311920475539
0.000799999999998135536 3.49615558609100097 0.000799999999998135536 3.53091541868457481
0.001007140329434719206 4.40036883826142766 0.001007140329434719206 4.43422845974830704
0.001267914553963578328 5.53817196386222843 0.001267914553963578328 5.57945216800460297
0.001596209851982166583 6.96976778818628429 0.001596209851982166583 7.01967749637575178
0.002009509145210586212 8.77079949550612525 0.002009509145210586212 8.83048098392640668
0.002529822128138903281 11.03626996442575958 0.002529822128138903281 11.10657842516026683
0.003184857364445292660 13.88543392602711180 0.003184857364445292660 13.96655102167255791
0.004009497869020606231 17.46789234673589419 0.004009497869020606231 17.55867246927887848
0.005047658755842121536 21.97116581354052300 0.005047658755842121536 22.06805653706084769
0.006354625877804664924 27.63007696109143296 0.006354625877804664924 27.72536690363211420
0.008000000000009777068 34.73832932481119684 0.008000000000009777068 34.81734103398922997
0.010071403294347192059 43.66272746999634080 0.010071403294347192059 43.69936559871126036
0.012679145539692626699 54.86053338515537092 0.012679145539692626699 54.81028301628276012
0.015962098519750611558 68.90048396349227744 0.015962098519750611558 68.68947716291710037
0.020095091452091651263 86.48798251325283104 0.020095091452091651263 85.99603599018961120
0.025298221281346400247 108.49488963470662384 0.025298221281346400247 107.52935375243929172
0.031848573644282396344 135.99412340002072597 0.031848573644282396344 134.24982292667473871
0.040094978690191851456 170.29885841960012272 0.040094978690191851456 167.29715082959202732
0.050476587558421215363 213.00537808958193864 0.050476587558421215363 208.00216072286227131
0.063546258777947173257 266.03743398595219105 0.063546258777947173257 257.88552077853523770
0.079999999999998294697 331.68810767145998852 0.079999999999998294697 318.63351116429481635
0.100714032943542974863 412.65242321101572998 0.100714032943542974863 392.03658271665153734
0.126791455396897845276 512.04008395192317948 0.126791455396897845276 479.87116230694016394
0.159620985197506115583 633.35251977291466119 0.159620985197506115583 583.69941961158144750
0.200950914520774404082 780.40193618444368440 0.200950914520774404082 704.55690362364964585
0.252982212813464002465 957.14272979851068612 0.252982212813464002465 842.49729388821731391
0.318485736442795541734 1167.37900199352588970 0.318485736442795541734 995.97387626705290131
0.400949786901819038576 1414.30966961682565852 0.400949786901819038576 1161.07198469015042974
0.504765875584169521062 1699.88251532822187073 0.504765875584169521062 1330.68629732501790386
0.635462587779443310865 2023.96367629286396550 0.635462587779443310865 1493.88174377024029127
0.799999999999997157829 2383.40625190727814697 0.799999999999997157829 1635.87657282465988828
1.007140329435330272645 2771.22866890196837630 1.007140329435330272645 1739.24540969786085043
1.267914553968893187630 3176.26166079742824877 1.267914553968893187630 1786.84141570330689319
1.596209851975103788391 3583.69866874372382881 1.596209851975103788391 1766.32753906403854671
2.009509145207687197399 3976.84433364315054860 2.009509145207687197399 1675.09005470315082675
2.529822128134711078928 4339.91244722853662097 2.529822128134711078928 1523.26432680362472638
3.184857364427983839050 4661.11054875601712411 3.184857364427983839050 1332.66179021265702431
4.009497869018190385759 4934.85424774708189943 4.009497869018190385759 1131.03088490507730057
5.009497869018190385759 5155.36931863287827582 5.009497869018190385759 948.97919314616888187
6.009497869018190385759 5307.10833241717136843 6.009497869018190385759 821.27959844368820086
7.009497869018204596614 5418.76242895357154339 7.009497869018204596614 732.44022906833606612
8.009497869018190385759 5505.36344955649201438 8.009497869018190385759 669.91385535942777096
9.009497869018204596614 5575.33865753856753145 9.009497869018204596614 626.09401999110980341
10.009497869018190385759 5633.69824296748902270 10.009497869018190385759 594.83199062634923848
11.009497869018190385759 5683.58319187772212899 11.009497869018190385759 569.47403145638020305
12.009497869018190385759 5727.05148664129501412 12.009497869018190385759 550.13864381058033359
13.009497869018190385759 5765.50966064228396135 13.009497869018190385759 535.08226284507907167
14.009497869018204596614 5799.95303649444758776 14.009497869018204596614 523.12407528520168398
15.009497869018190385759 5831.10829737597578060 15.009497869018190385759 513.44662197976128937
16.009497869018190385759 5859.52075464469453436 16.009497869018190385759 505.47761253841940743
17.009497869018190385759 5885.60973460598961537 17.009497869018190385759 498.96086246857464630
18.009497869018190385759 5909.70452070516785170 18.009497869018190385759 493.25528779194746676
19.009497869018204596614 5932.06758424874260527 19.009497869018204596614 488.53622131857406430
20.009497869018190385759 5952.91261000067061104 20.009497869018190385759 484.20786909554635713
21.009497869018204596614 5972.41613810159378772 21.009497869018204596614 480.39498147149907936
22.009497869018190385759 5990.72457466147898231 22.009497869018190385759 477.00031813216332921
23.009497869018190385759 6007.96184165009617573 23.009497869018190385759 474.00171390010609684
24.009497869018190385759 6024.23364236547149630 24.009497869018190385759 471.22335603042876073
25.009497869018190385759 6039.63020380869693327 25.009497869018190385759 468.68398285450729190
26.009497869018204596614 6054.23042561860074784 26.009497869018204596614 466.39782762044990250
27.009497869018190385759 6068.10223965567001869 27.009497869018190385759 464.21980202593044851
28.009497869018190385759 6081.30600714292449993 28.009497869018190385759 462.18866243818052908
29.009497869018190385759 6093.89430672792695987 29.009497869018190385759 460.29871097775071576
30.009497869018190385759 6105.91433603279529052 30.009497869018190385759 458.49959555616345597
31.009497869018190385759 6117.40775698683046357 31.009497869018190385759 456.79664753941955269
32.009497869018190385759 6128.41208098031347618 32.009497869018190385759 455.17591854944811303
33.009497869018190385759 6138.96098616695689998 33.009497869018190385759 453.63723334123756104
34.009497869018190385759 6149.08472092310876178 34.009497869018190385759 452.15014324983002325
35.009497869018190385759 6158.81093724649872456 35.009497869018190385759 450.71530219543643625
36.009497869018190385759 6168.16446732297663402 36.009497869018190385759 449.33337368787664445
37.009497869018190385759 6177.16808042817046953 37.009497869018190385759 447.99625704369628920
38.009497869018190385759 6185.84259738063428813 38.009497869018190385759 446.69898115320393117
39.009497869018190385759 6194.20696300126928691 39.009497869018190385759 445.42768713988004947
40.009497869018190385759 6202.27867903655260307 40.009497869018190385759 444.17315300959910473
41.009497869018190385759 6210.07386188148939254 41.009497869018190385759 442.98267373204919295
42.009497869018190385759 6217.60730544205398473 42.009497869018190385759 441.79141585294831884
43.009497869018190385759 6224.89273732670608297 43.009497869018190385759 440.65231598543658720
44.009497869018218807469 6231.94289210383794853 44.009497869018218807469 439.50499807154756127
46.009497869018190385759 6245.38366251310344524 46.009497869018190385759 437.27837527576173215
48.009497869018190385759 6258.01450633757576725 48.009497869018190385759 435.13585194789993693
50.009497869018190385759 6269.90929203139148740 50.009497869018190385759 433.01480331220761855
52.009497869018190385759 6281.13262142017811129 52.009497869018190385759 430.95383080155119160
54.009497869018190385759 6291.74151807172256667 54.009497869018190385759 428.96289893195978493
56.009497869018190385759 6301.78624655420026102 56.009497869018190385759 427.01191109270723700
58.009497869018218807469 6311.31175078832984582 58.009497869018218807469 425.00607736031190598
60.009497869018190385759 6320.35787301603704691 60.009497869018190385759 423.13089482261119656
62.009497869018190385759 6328.96062649242594489 62.009497869018190385759 421.28923149275317428
64.009497869018190385759 6337.15217739251420426 64.009497869018190385759 419.47919327912580911
66.009497869018190385759 6344.96168699897134502 66.009497869018190385759 417.66996802377099129
68.009497869018190385759 6352.41563672057236545 68.009497869018190385759 415.87373806969179668
70.009497869018190385759 6359.53775609205968067 70.009497869018190385759 414.16443015998333976
72.009497869018218807469 6366.35010800331656355 72.009497869018218807469 412.45788527064325990
74.009497869018190385759 6372.87254250449859683 74.009497869018190385759 410.80174985219900918
76.009497869018190385759 6379.12322142071752751 76.009497869018190385759 409.18020016874135081
78.009497869018190385759 6385.11907520776912861 78.009497869018190385759 407.58103559791442194
80.009497869018190385759 6390.87537053751566418 80.009497869018190385759 406.02676659422860439
82.009497869018218807469 6396.40622521554269042 82.009497869018218807469 404.51239499457835791
84.009497869018190385759 6401.72488988936493115 84.009497869018190385759 403.04956693433018700
86.009497869018190385759 6406.84333699878516200 86.009497869018190385759 401.59236579749341445
88.009497869018190385759 6411.77266075943862234 88.009497869018190385759 400.19399178915944049
91.009497869018218807469 6418.83495259772007557 91.009497869018218807469 398.14549113789172452
94.009497869018190385759 6425.52716110130404559 94.009497869018190385759 396.17776777953412193
97.009497869018190385759 6431.87804615609184111 97.009497869018190385759 394.27591579620110451
99.504748934509109403734 6436.91916449936161371 99.504748934509109403734 393.05600579659477489
nan nan nan nan

