Time Pressure difference Time.1 Pressure.1 difference.1
(hr) (psi) (hr) (psi)
0.000200000000006639311 0.53764674251759448 0.000200000000006639311 0.42859275743224706
0.000399999999999067768 1.07498898264906351 0.000399999999999067768 1.12185368647226413
0.000600000000005707079 1.61207315788938854 0.000600000000005707079 1.64138281161395994
0.000799999999998135536 2.14892151152691380 0.000799999999998135536 2.17028673688890139
0.001007140329434719206 2.70469863893138163 0.001007140329434719206 2.72551054709553409
0.001267914553963578328 3.40405241546622239 0.001267914553963578328 3.42942540488199210
0.001596209851982166583 4.28398667094989527 0.001596209851982166583 4.31466380842886288
0.002009509145210586212 5.39099569371737086 0.002009509145210586212 5.42767908241337693
0.002529822128138903281 6.78347326072220813 0.002529822128138903281 6.82668854676834780
0.003184857364445292660 8.53471961580734018 0.003184857364445292660 8.58457845861129698
0.004009497869020606231 10.73668739865974153 0.004009497869020606231 10.79248564714952963
0.005047658755842121536 13.50463664657200447 0.005047658755842121536 13.56419079252265192
0.006354625877804664924 16.98290172870129666 0.006354625877804664924 17.04147195028196293
0.008000000000009777068 21.35200831953190459 0.008000000000009777068 21.40057308083448362
0.010071403294347192059 26.83741383978842521 0.010071403294347192059 26.85993356495478324
0.012679145539692626699 33.72017561066638081 0.012679145539692626699 33.68928908517474952
0.015962098519750611558 42.34986930581923303 0.015962098519750611558 42.22017340365789551
0.020095091452091651263 53.16007298150459093 0.020095091452091651263 52.85769671709085316
0.025298221281346400247 66.68667811990530936 0.025298221281346400247 66.09320887162300551
0.031848573644282396344 83.58915672351415083 0.031848573644282396344 82.51701770754699794
0.040094978690191851456 104.67465512755630641 0.040094978690191851456 102.82964741761793448
0.050476587558421215363 130.92433325011410261 0.050476587558421215363 127.84909212841962756
0.063546258777947173257 163.52063021401059473 0.063546258777947173257 158.51003465550311944
0.079999999999998294697 203.87299481994591588 0.079999999999998294697 195.84895167662651261
0.100714032943542974863 253.63793091752251030 0.100714032943542974863 240.96634865362213418
0.126791455396897845276 314.72682610175303353 0.126791455396897845276 294.95411118009832308
0.159620985197506115583 389.29184374243851607 0.159620985197506115583 358.77243108380741887
0.200950914520774404082 479.67616629414908402 0.200950914520774404082 433.05781136144400989
0.252982212813464002465 588.31037435760026710 0.252982212813464002465 517.84324629094987813
0.318485736442795541734 717.53266916062580094 0.318485736442795541734 612.17804383303155191
0.400949786901819038576 869.30927361795374964 0.400949786901819038576 713.65604387234736805
0.504765875584169521062 1044.83739762324580624 0.504765875584169521062 817.90994107703295413
0.635462587779443310865 1244.03476202206502421 0.635462587779443310865 918.21846477219321514
0.799999999999997157829 1464.96711582502507554 0.799999999999997157829 1005.49597149831629395
1.007140329435330272645 1703.34321609007770348 1.007140329435330272645 1069.03190738802845772
1.267914553968893187630 1952.29784288785799617 1.267914553968893187630 1098.28692154551504245
1.596209851975103788391 2202.73010467026233528 1.596209851975103788391 1085.67801164164484362
2.009509145207687197399 2444.37815369502914109 2.009509145207687197399 1029.59864447025256595
2.529822128134711078928 2667.53895424322990948 2.529822128134711078928 936.27854911050576447
3.184857364427983839050 2864.96423834099641681 3.184857364427983839050 819.12418313737055087
4.009497869018190385759 3033.22154523750305088 4.009497869018190385759 695.19120042690769878
5.009497869018190385759 3168.76173152886667594 5.009497869018190385759 583.29263441715033878
6.009497869018190385759 3262.02852782254285557 6.009497869018190385759 504.80173224987873937
7.009497869018204596614 3330.65702103140574764 7.009497869018204596614 450.19637295732172788
8.009497869018190385759 3383.88657318125024176 8.009497869018190385759 411.76436780417731143
9.009497869018204596614 3426.89702451942412154 9.009497869018204596614 384.83038716865547713
10.009497869018190385759 3462.76790195718149334 10.009497869018190385759 365.61509604626229475
11.009497869018190385759 3493.42982107802936298 11.009497869018190385759 350.02875767918322936
12.009497869018190385759 3520.14772632757058091 12.009497869018190385759 338.14420923086095172
13.009497869018190385759 3543.78614726442901883 13.009497869018190385759 328.88976384198014102
14.009497869018204596614 3564.95686163217305875 14.009497869018204596614 321.53963143124667567
15.009497869018190385759 3584.10652721682254196 15.009497869018190385759 315.59135851467726752
16.009497869018190385759 3601.57032112318984218 16.009497869018190385759 310.69318525196854353
17.009497869018190385759 3617.60598340196838762 17.009497869018190385759 306.68764715004687105
18.009497869018190385759 3632.41590901573590600 18.009497869018190385759 303.18070020323318658
19.009497869018204596614 3646.16142666478390311 19.009497869018204596614 300.28011319866686790
20.009497869018190385759 3658.97387826872818550 20.009497869018190385759 297.61967976757654242
21.009497869018204596614 3670.96177470373868346 21.009497869018204596614 295.27607805003657404
22.009497869018190385759 3682.21510488231751879 22.009497869018190385759 293.18953902319452709
23.009497869018190385759 3692.81003777922114750 23.009497869018190385759 291.34643880063606503
24.009497869018190385759 3702.81154421322025883 24.009497869018190385759 289.63871360195719262
25.009497869018190385759 3712.27508245520266428 25.009497869018190385759 288.07788099335084553
26.009497869018204596614 3721.24914838212771429 26.009497869018204596614 286.67268947936310042
27.009497869018190385759 3729.77549649625370876 27.009497869018190385759 285.33396014153288434
28.009497869018190385759 3737.89122798699281702 28.009497869018190385759 284.08551468607481638
29.009497869018190385759 3745.62866046264616671 29.009497869018190385759 282.92385089593432212
30.009497869018190385759 3753.01680406963441783 30.009497869018190385759 281.81801972338877249
31.009497869018190385759 3760.08126642577781240 31.009497869018190385759 280.77129810700768076
32.009497869018190385759 3766.84510400883254988 32.009497869018190385759 279.77511263838579225
33.009497869018190385759 3773.32901718730181528 33.009497869018190385759 278.82935560270169617
34.009497869018190385759 3779.55159820773405954 34.009497869018190385759 277.91531164547120625
35.009497869018190385759 3785.52984344551623508 35.009497869018190385759 277.03338270052512371
36.009497869018190385759 3791.27901607102057824 36.009497869018190385759 276.18397659597366101
37.009497869018190385759 3796.81311128125389587 37.009497869018190385759 275.36211422476475263
38.009497869018190385759 3802.14492664880071970 38.009497869018190385759 274.56474008084654770
39.009497869018190385759 3807.28610665920086831 39.009497869018190385759 273.78333576818505435
40.009497869018190385759 3812.24740880838544399 40.009497869018190385759 273.01223296308370436
41.009497869018190385759 3817.03873908224750267 41.009497869018190385759 272.28050164691131840
42.009497869018190385759 3821.66919059521114832 42.009497869018190385759 271.54829176118425949
43.009497869018190385759 3826.14720105904098091 43.009497869018190385759 270.84814093871744944
44.009497869018218807469 3830.48059781073243357 44.009497869018218807469 270.14293887176000908
46.009497869018190385759 3838.74200379016610896 46.009497869018190385759 268.77433913239019603
48.009497869018190385759 3846.50558619797766369 48.009497869018190385759 267.45743135903273924
50.009497869018190385759 3853.81674847980912091 50.009497869018190385759 266.15372306345011566
52.009497869018190385759 3860.71519832296417007 52.009497869018190385759 264.88694072102958899
54.009497869018190385759 3867.23598541801402462 54.009497869018190385759 263.66320904856905827
56.009497869018190385759 3873.41000501809048728 56.009497869018190385759 262.46402908267253906
58.009497869018218807469 3879.26488202593782262 58.009497869018218807469 261.23113793983014830
60.009497869018190385759 3884.82510558359626884 60.009497869018190385759 260.07855190809402757
62.009497869018190385759 3890.11281133597321968 62.009497869018190385759 258.94656854835255899
64.009497869018190385759 3895.14777030976665628 64.009497869018190385759 257.83402365206023887
66.009497869018190385759 3899.94790656644681803 66.009497869018190385759 256.72197844277451395
68.009497869018190385759 3904.52949697572785226 68.009497869018190385759 255.61792083065736847
70.009497869018190385759 3908.90712696048603902 70.009497869018190385759 254.56729008881941922
72.009497869018218807469 3913.09435753581556128 72.009497869018218807469 253.51835764494344971
74.009497869018190385759 3917.10338958887359695 74.009497869018190385759 252.50040951904910003
76.009497869018190385759 3920.94538633471302091 76.009497869018190385759 251.50371960895043344
78.009497869018190385759 3924.63075412389980556 78.009497869018190385759 250.52078876903209448
80.009497869018190385759 3928.16887665769263549 80.009497869018190385759 249.56545311120049746
82.009497869018218807469 3931.56843148357802420 82.009497869018218807469 248.63464050094916047
84.009497869018190385759 3934.83756314798210951 84.009497869018190385759 247.73550926696222518
86.009497869018190385759 3937.98363054349692902 86.009497869018190385759 246.83983663670861119
88.009497869018190385759 3941.01345275984567706 88.009497869018190385759 245.98032226051091698
91.009497869018218807469 3945.35430958908364119 91.009497869018218807469 244.72120578028358295
94.009497869018190385759 3949.46769369309504327 94.009497869018190385759 243.51173928218750575
97.009497869018190385759 3953.37128241373466153 97.009497869018190385759 242.34276080337386361
99.504748934509109403734 3956.46981947344238506 99.504748934509109403734 241.59293981408205809
nan nan nan nan

