Time Pressure difference Time.1 Pressure.1 difference.1
(hr) (psi) (hr) (psi)
0.000200000000006639311 0.82228325326220331 0.000200000000006639311 0.65549480548461314
0.000399999999999067768 1.64410079699268530 0.000399999999999067768 1.71577622636934501
0.000600000000005707079 2.46552365324259437 0.000600000000005707079 2.51035018246840957
0.000799999999998135536 3.28658584115880981 0.000799999999998135536 3.31926206818302516
0.001007140329434719206 4.13659791836564228 0.001007140329434719206 4.16842789555787530
0.001267914553963578328 5.20619781188951603 0.001267914553963578328 5.24500356040775273
0.001596209851982166583 6.55197961439395726 0.001596209851982166583 6.59889758936179138
0.002009509145210586212 8.24505223745009630 0.002009509145210586212 8.30115624369104665
0.002529822128138903281 10.37472381051631842 0.002529822128138903281 10.44081777741041428
0.003184857364445292660 13.05310058888181324 0.003184857364445292660 13.12935528964080767
0.004009497869020606231 16.42081602147960240 0.004009497869020606231 16.50615451916986842
0.005047658755842121536 20.65415016534542048 0.005047658755842121536 20.74523297679935041
0.006354625877804664924 25.97384970271963311 0.006354625877804664924 26.06342768866653259
0.008000000000009777068 32.65601272398997423 0.008000000000009777068 32.73028824127626990
0.010071403294347192059 41.04545646085288979 0.010071403294347192059 41.07989839346025462
0.012679145539692626699 51.57203328690152233 0.012679145539692626699 51.52479507144374082
0.015962098519750611558 64.77038835007647322 0.015962098519750611558 64.57202991147678972
0.020095091452091651263 81.30364103053643987 0.020095091452091651263 80.84118321437424015
0.025298221281346400247 101.99139006573753363 0.025298221281346400247 101.08373121542342687
0.031848573644282396344 127.84223969478637173 0.031848573644282396344 126.20249767036598598
0.040094978690191851456 160.09064901861552244 0.040094978690191851456 157.26887252106274673
0.050476587558421215363 200.23721555899803093 0.050476587558421215363 195.53390560817121013
0.063546258777947173257 250.09037562142799516 0.063546258777947173257 242.42711182606356601
0.079999999999998294697 311.80575678344672497 0.079999999999998294697 299.53369079954643439
0.100714032943542974863 387.91683552091683396 0.100714032943542974863 368.53676852906914974
0.126791455396897845276 481.34691050856343963 0.126791455396897845276 451.10628768720920334
0.159620985197506115583 595.38752572372948180 0.159620985197506115583 548.71077695170549759
0.200950914520774404082 733.62237197928675414 0.200950914520774404082 662.32371149397317822
0.252982212813464002465 899.76880784103559563 0.252982212813464002465 791.99555315086456631
0.318485736442795541734 1097.40290577507471426 0.318485736442795541734 936.27230233287173178
0.400949786901819038576 1329.53183023922338180 0.400949786901819038576 1091.47394945182531956
0.504765875584169521062 1597.98660812967000311 0.504765875584169521062 1250.92108635310910358
0.635462587779443310865 1902.64140073962857969 0.635462587779443310865 1404.33412259276610712
0.799999999999997157829 2240.53794185003835082 0.799999999999997157829 1537.81736817389537464
1.007140329435330272645 2605.11315402011859987 1.007140329435330272645 1634.98997600522011453
1.267914553968893187630 2985.86728912260605284 1.267914553968893187630 1679.73293883431688300
1.596209851975103788391 3368.88133655451838422 1.596209851975103788391 1660.44872368722190004
2.009509145207687197399 3738.46070565122090557 2.009509145207687197399 1574.68027977803308204
2.529822128134711078928 4079.76545943082237500 2.529822128134711078928 1431.95542805136165043
3.184857364427983839050 4381.71001158034778200 3.184857364427983839050 1252.77816244539008039
4.009497869018190385759 4639.04471624559209886 4.009497869018190385759 1063.23360065291763021
5.009497869018190385759 4846.34147175003181474 5.009497869018190385759 892.09461734387707565
6.009497869018190385759 4988.98480725800709479 6.009497869018190385759 772.04970814687328584
7.009497869018204596614 5093.94603216567884374 7.009497869018204596614 688.53562922884498221
8.009497869018190385759 5175.35593545367646584 8.009497869018190385759 629.75726840638890280
9.009497869018204596614 5241.13662573559031443 9.009497869018204596614 588.56412155206135139
10.009497869018190385759 5295.99796769921795203 10.009497869018190385759 559.17602924722461921
11.009497869018190385759 5342.89266753110405261 11.009497869018190385759 535.33809997992739227
12.009497869018190385759 5383.75534614804928424 12.009497869018190385759 517.16173176484619489
13.009497869018190385759 5419.90822522795133409 13.009497869018190385759 503.00787411126378856
14.009497869018204596614 5452.28696484920510557 14.009497869018204596614 491.76649513014200465
15.009497869018190385759 5481.57468868455271149 15.009497869018190385759 482.66913655185931020
16.009497869018190385759 5508.28402054134949140 16.009497869018190385759 475.17781273830485134
17.009497869018190385759 5532.80915108536373737 17.009497869018190385759 469.05169564124815906
18.009497869018190385759 5555.45962555347887246 18.009497869018190385759 463.68812972259189564
19.009497869018204596614 5576.48218195790468599 19.009497869018204596614 459.25193783325516961
20.009497869018190385759 5596.07769617570193077 20.009497869018190385759 455.18303964452883292
21.009497869018204596614 5614.41212601748247835 21.009497869018204596614 451.59870760593827299
22.009497869018190385759 5631.62310158472155308 22.009497869018190385759 448.40753027076817716
23.009497869018190385759 5647.82711660351560568 23.009497869018190385759 445.58867110685520174
24.009497869018190385759 5663.12353820845419250 24.009497869018190385759 442.97685609711089683
25.009497869018190385759 5677.59718493148557172 25.009497869018190385759 440.58970034277183458
26.009497869018204596614 5691.32222693737185182 26.009497869018204596614 438.44058390961419036
27.009497869018190385759 5704.36252405309369351 27.009497869018190385759 436.39311551057971883
28.009497869018190385759 5716.77481927422468289 28.009497869018190385759 434.48372834340847248
29.009497869018190385759 5728.60853953110563452 29.009497869018190385759 432.70706607613487904
30.009497869018190385759 5739.90805328297119559 30.009497869018190385759 431.01579487106522492
31.009497869018190385759 5750.71252512177761673 31.009497869018190385759 429.41492651659990543
32.009497869018190385759 5761.05721789586095838 32.009497869018190385759 427.89134874106059669
33.009497869018190385759 5770.97379099234331079 33.009497869018190385759 426.44489680413198585
34.009497869018190385759 5780.49067961182845465 34.009497869018190385759 425.04694722248530070
35.009497869018190385759 5789.63387821078958950 35.009497869018190385759 423.69811471845025608
36.009497869018190385759 5798.42673046156141936 36.009497869018190385759 422.39902302913617405
37.009497869018190385759 5806.89064078309456818 37.009497869018190385759 421.14205704964024335
38.009497869018190385759 5815.04518193346029875 38.009497869018190385759 419.92254365305944930
39.009497869018190385759 5822.90816312583592662 39.009497869018190385759 418.72745470428304770
40.009497869018190385759 5830.49603700105944881 40.009497869018190385759 417.54812100236335937
41.009497869018190385759 5837.82395389049634105 41.009497869018190385759 416.42900251880558926
42.009497869018190385759 5844.90582091032320022 42.009497869018190385759 415.30915210534055859
43.009497869018190385759 5851.75454279618134024 43.009497869018190385759 414.23833320039136652
44.009497869018218807469 5858.38209076935527264 44.009497869018218807469 413.15978886269169834
46.009497869018190385759 5871.01718226731281902 46.009497869018190385759 411.06663632012612197
48.009497869018190385759 5882.89089653808332514 48.009497869018190385759 409.05254207852061654
50.009497869018190385759 5894.07267414559009922 50.009497869018190385759 407.05863527351198172
52.009497869018190385759 5904.62324449394509429 52.009497869018190385759 405.12120345569223900
54.009497869018190385759 5914.59621299225636903 54.009497869018190385759 403.24961383898789791
56.009497869018190385759 5924.03883120413775032 56.009497869018190385759 401.41557389114626631
58.009497869018218807469 5932.99334898084634915 58.009497869018218807469 399.52997567268135981
60.009497869018190385759 5941.49722030432349129 60.009497869018190385759 397.76719703590850941
62.009497869018190385759 5949.58429969031112705 62.009497869018190385759 396.03592836806865307
64.009497869018190385759 5957.28482517964221188 64.009497869018190385759 394.33438911491560930
66.009497869018190385759 5964.62621004280117631 66.009497869018190385759 392.63361408894928672
68.009497869018190385759 5971.63334831581869366 68.009497869018190385759 390.94505538806424738
70.009497869018190385759 5978.32854711603795295 70.009497869018190385759 389.33820837113557900
72.009497869018218807469 5984.73254681948310463 72.009497869018218807469 387.73395875108991504
74.009497869018190385759 5990.86400760651213204 74.009497869018190385759 386.17709691148684215
76.009497869018190385759 5996.74000262956178631 76.009497869018190385759 384.65274763721834006
78.009497869018190385759 6002.37644748361162783 78.009497869018190385759 383.14944164675495131
80.009497869018190385759 6007.78769371176531422 80.009497869018190385759 381.68834005242428020
82.009497869018218807469 6012.98701285723745968 82.009497869018218807469 380.26474429556935775
84.009497869018190385759 6017.98686128514964366 84.009497869018190385759 378.88960240829516124
86.009497869018190385759 6022.79849377240680042 86.009497869018190385759 377.51975015026022220
88.009497869018190385759 6027.43233951505771984 88.009497869018190385759 376.20519875136966448
91.009497869018218807469 6034.07129701859867055 91.009497869018218807469 374.27949119337489492
94.009497869018190385759 6040.36235506002685725 94.009497869018190385759 372.42971890216909969
97.009497869018190385759 6046.33254957394728990 97.009497869018190385759 370.64186946398353939
99.504748934509109403734 6051.07148860644065280 99.504748934509109403734 369.49508442153722854
nan nan nan nan

