Time Pressure difference Time.1 Pressure.1 difference.1
(hr) (psi) (hr) (psi)
0.000200000000006639311 0.54513717701087361 0.000200000000006639311 0.43456386395994095
0.000399999999999067768 1.08996560934231668 0.000399999999999067768 1.13748322699587145
0.000600000000005707079 1.63453238145131508 0.000600000000005707079 1.66425037400486664
0.000799999999998135536 2.17886004651722720 0.000799999999998135536 2.20052292981769382
0.001007140329434719206 2.74238019891649332 0.001007140329434719206 2.76348205626559595
0.001267914553963578328 3.45147729431946715 0.001267914553963578328 3.47720377739582798
0.001596209851982166583 4.34367069577737031 0.001596209851982166583 4.37477522371657290
0.002009509145210586212 5.46610244486823138 0.002009509145210586212 5.50329690244699865
0.002529822128138903281 6.87797985413784208 0.002529822128138903281 6.92179721073261245
0.003184857364445292660 8.65362437825666753 0.003184857364445292660 8.70417784890154778
0.004009497869020606231 10.88626973083921179 0.004009497869020606231 10.94284535430795913
0.005047658755842121536 13.69278173917130559 0.005047658755842121536 13.75316558684572321
0.006354625877804664924 17.21950562275441143 0.006354625877804664924 17.27889183813418938
0.008000000000009777068 21.64948211964922109 0.008000000000009777068 21.69872347979347538
0.010071403294347192059 27.21130969823749268 0.010071403294347192059 27.23414316570492488
0.012679145539692626699 34.18996133898836121 0.012679145539692626699 34.15864450586604306
0.015962098519750611558 42.93988296487863465 0.015962098519750611558 42.80838015386365925
0.020095091452091651263 53.90069319332121722 0.020095091452091651263 53.59410425649304699
0.025298221281346400247 67.61574948690089570 0.025298221281346400247 67.01401209119670455
0.031848573644282396344 84.75371153854763406 0.031848573644282396344 83.66663560130538713
0.040094978690191851456 106.13297075626840638 0.040094978690191851456 104.26225860455069494
0.050476587558421215363 132.74835646876894657 0.050476587558421215363 129.63027143051837697
0.063546258777947173257 165.79878140894263083 0.063546258777947173257 160.71837879157047269
0.079999999999998294697 206.71333066109068000 0.079999999999998294697 198.57749744301915484
0.100714032943542974863 257.17158630182240131 0.100714032943542974863 244.32346496613388354
0.126791455396897845276 319.11156516509015546 0.126791455396897845276 299.06337898291701549
0.159620985197506115583 394.71541432089355794 0.159620985197506115583 363.77080860664688089
0.200950914520774404082 486.35896118060003346 0.200950914520774404082 439.09112452282636241
0.252982212813464002465 596.50664892295378650 0.252982212813464002465 525.05778068200027064
0.318485736442795541734 727.52925433469022209 0.318485736442795541734 620.70684010934314756
0.400949786901819038576 881.42039352903975669 0.400949786901819038576 723.59862033496517597
0.504765875584169521062 1059.39395579446750162 0.504765875584169521062 829.30497121587711717
0.635462587779443310865 1261.36651567252715722 0.635462587779443310865 931.01098208326106942
0.799999999999997157829 1485.37687440463082567 0.799999999999997157829 1019.50442930556835108
1.007140329435330272645 1727.07400393034185981 1.007140329435330272645 1083.92554077269164736
1.267914553968893187630 1979.49703884140353694 1.267914553968893187630 1113.58813252679919970
1.596209851975103788391 2233.41829498300558043 1.596209851975103788391 1100.80355669547589059
2.009509145207687197399 2478.43295769387623295 2.009509145207687197399 1043.94289803098354241
2.529822128134711078928 2704.70280964290350312 2.529822128134711078928 949.32267750368612269
3.184857364427983839050 2904.87860079466372554 3.184857364427983839050 830.53612996126571488
4.009497869018190385759 3075.48004973771594450 4.009497869018190385759 704.87652674864477831
5.009497869018190385759 3212.90856679784474181 5.009497869018190385759 591.41900238890639230
6.009497869018190385759 3307.47474570242366099 6.009497869018190385759 511.83457372085229053
7.009497869018204596614 3377.05936342967606834 7.009497869018204596614 456.46845864867754017
8.009497869018190385759 3431.03050376736655380 8.009497869018190385759 417.50102308318287214
9.009497869018204596614 3474.64017191984976307 9.009497869018204596614 390.19180123137670080
10.009497869018190385759 3511.01079842407716569 10.009497869018190385759 370.70880481470862833
11.009497869018190385759 3542.09989598468928307 11.009497869018190385759 354.90531931867656112
12.009497869018190385759 3569.19003211231984096 12.009497869018190385759 342.85519666596582056
13.009497869018190385759 3593.15778089504829040 13.009497869018190385759 333.47181937538232432
14.009497869018204596614 3614.62344329577854296 14.009497869018204596614 326.01928573911231979
15.009497869018190385759 3634.03989988702596747 15.009497869018190385759 319.98814214723466876
16.009497869018190385759 3651.74699742366783539 16.009497869018190385759 315.02172808055632913
17.009497869018190385759 3668.00606676205779877 17.009497869018190385759 310.96038526823639359
18.009497869018190385759 3683.02232260883511117 18.009497869018190385759 307.40457992742682336
19.009497869018204596614 3696.95934127776081368 19.009497869018204596614 304.46358226799810609
20.009497869018190385759 3709.95029452943799697 20.009497869018190385759 301.76608397486472768
21.009497869018204596614 3722.10520500146867562 21.009497869018204596614 299.38983145940238728
22.009497869018190385759 3733.51531532185435935 22.009497869018190385759 297.27422300339384265
23.009497869018190385759 3744.25785564301850172 23.009497869018190385759 295.40544491395769455
24.009497869018190385759 3754.39870194993727637 24.009497869018190385759 293.67392787814543453
25.009497869018190385759 3763.99408515194681968 25.009497869018190385759 292.09134992359872740
26.009497869018204596614 3773.09317676516047868 26.009497869018204596614 290.66658143805392456
27.009497869018190385759 3781.73831301090694978 27.009497869018190385759 289.30920107229724181
28.009497869018190385759 3789.96711196823571299 28.009497869018190385759 288.04336241389938778
29.009497869018190385759 3797.81234149076408357 29.009497869018190385759 286.86551445330803745
30.009497869018190385759 3805.30341589103818478 30.009497869018190385759 285.74427696411709121
31.009497869018190385759 3812.46629954935633577 31.009497869018190385759 284.68297253883901021
32.009497869018190385759 3819.32437016375433814 32.009497869018190385759 283.67290832529829459
33.009497869018190385759 3825.89861649796057463 33.009497869018190385759 282.71397510800250075
34.009497869018190385759 3832.20788982363137620 34.009497869018190385759 281.78719679223468120
35.009497869018190385759 3838.26942330776046219 35.009497869018190385759 280.89298091152312509
36.009497869018190385759 3844.09869276550898576 36.009497869018190385759 280.03174097579369572
37.009497869018190385759 3849.70988837340746613 37.009497869018190385759 279.19842850962993452
38.009497869018190385759 3855.11598599839726376 38.009497869018190385759 278.38994543801004511
39.009497869018190385759 3860.32879235569134835 39.009497869018190385759 277.59765468755608708
40.009497869018190385759 3865.35921481345530992 40.009497869018190385759 276.81580896411742287
41.009497869018190385759 3870.21729736667475663 41.009497869018190385759 276.07388324880332675
42.009497869018190385759 3874.91225981402976686 42.009497869018190385759 275.33147229655679666
43.009497869018190385759 3879.45265742054471048 43.009497869018190385759 274.62156705086675856
44.009497869018218807469 3883.84642657280164713 44.009497869018218807469 273.90654018731083852
46.009497869018190385759 3892.22292953956502970 46.009497869018190385759 272.51887326890954455
48.009497869018190385759 3900.09467331219047992 48.009497869018190385759 271.18361848322973628
50.009497869018190385759 3907.50769389206607229 50.009497869018190385759 269.86174706897810438
52.009497869018190385759 3914.50225216956914664 52.009497869018190385759 268.57731605615225590
54.009497869018190385759 3921.11388614365159810 54.009497869018190385759 267.33653549042213626
56.009497869018190385759 3927.37392149667039121 56.009497869018190385759 266.12064868289553488
58.009497869018218807469 3933.31036799843604967 58.009497869018218807469 264.87058103806305098
60.009497869018190385759 3938.94805597098365979 60.009497869018190385759 263.70193730619445205
62.009497869018190385759 3944.30942945056085591 62.009497869018190385759 262.55418328045038834
64.009497869018190385759 3949.41453491160473277 64.009497869018190385759 261.42613853266163915
66.009497869018190385759 3954.28154613161359521 66.009497869018190385759 260.29860043346337761
68.009497869018190385759 3958.92696674783564958 68.009497869018190385759 259.17916121374702243
70.009497869018190385759 3963.36558538563213006 70.009497869018190385759 258.11389320151192805
72.009497869018218807469 3967.61115199064897752 72.009497869018218807469 257.05034714773671567
74.009497869018190385759 3971.67603743144354667 74.009497869018190385759 256.01821708200799321
76.009497869018190385759 3975.57156044773546455 76.009497869018190385759 255.00764139916805107
78.009497869018190385759 3979.30827237020776010 78.009497869018190385759 254.01101647634058622
80.009497869018190385759 3982.89568763279976338 80.009497869018190385759 253.04237118860112332
82.009497869018218807469 3986.34260467762214830 82.009497869018218807469 252.09859060080765403
84.009497869018190385759 3989.65728152001338458 84.009497869018190385759 251.18693277068152270
86.009497869018190385759 3992.84717957583688985 86.009497869018190385759 250.27878172917053234
88.009497869018190385759 3995.91921293761470224 88.009497869018190385759 249.40729269448090122
91.009497869018218807469 4000.32054610038676401 91.009497869018218807469 248.13063434378602778
94.009497869018190385759 4004.49123741327684911 94.009497869018190385759 246.90431769323961930
97.009497869018190385759 4008.44921049689810388 97.009497869018190385759 245.71905313654781366
99.504748934509109403734 4011.59091602957323630 99.504748934509109403734 244.95878572480455659
nan nan nan nan

