Time Pressure difference Time.1 Pressure.1 difference.1
(hr) (psi) (hr) (psi)
0.000200000000006639311 0.51850452103476996 0.000200000000006639311 0.41333326297258510
0.000399999999999067768 1.03671538109963857 0.000399999999999067768 1.08191152735637841
0.000600000000005707079 1.55467736434224313 0.000600000000005707079 1.58294348550386532
0.000799999999998135536 2.07241192210722547 0.000799999999998135536 2.09301646607087521
0.001007140329434719206 2.60840131896942840 0.001007140329434719206 2.62847224588315465
0.001267914553963578328 3.28285550284126426 0.001267914553963578328 3.30732511956885622
0.001596209851982166583 4.13146082972412465 0.001596209851982166583 4.16104574713805242
0.002009509145210586212 5.19905621855405897 0.002009509145210586212 5.23443354232745062
0.002529822128138903281 6.54195641088225344 0.002529822128138903281 6.58363307219300342
0.003184857364445292660 8.23085188954794589 0.003184857364445292660 8.27893557231399058
0.004009497869020606231 10.35442143864553977 0.004009497869020606231 10.40823306218909750
0.005047658755842121536 13.02382140992934900 0.005047658755842121536 13.08125520703035960
0.006354625877804664924 16.37824733278778311 0.006354625877804664924 16.43473223688183182
0.008000000000009777068 20.59179749700987117 0.008000000000009777068 20.63863317238372019
0.010071403294347192059 25.88190220152970511 0.010071403294347192059 25.90362014081552289
0.012679145539692626699 32.51961208273243642 0.012679145539692626699 32.48982523229700803
0.015962098519750611558 40.84205662155630989 0.015962098519750611558 40.71697837535428732
0.020095091452091651263 51.26737688463988007 0.020095091452091651263 50.97576633861857687
0.025298221281346400247 64.31238462647215215 0.025298221281346400247 63.74004508826801896
0.031848573644282396344 80.61307219620637454 0.031848573644282396344 79.57910531238664475
0.040094978690191851456 100.94784852084764282 0.040094978690191851456 99.16852993990089260
0.050476587558421215363 126.26294058021839817 0.050476587558421215363 123.29718946750067232
0.063546258777947173257 157.69868827140649614 0.063546258777947173257 152.86648852999758219
0.079999999999998294697 196.61435878146488676 0.079999999999998294697 188.87600138473422362
0.100714032943542974863 244.60747826875621058 0.100714032943542974863 232.38705141053651460
0.126791455396897845276 303.52138182878042016 0.126791455396897845276 284.45264901733941088
0.159620985197506115583 375.43160781972011364 0.159620985197506115583 345.99879963655109805
0.200950914520774404082 462.59791269544098213 0.200950914520774404082 417.63934439346689942
0.252982212813464002465 567.36433935725222000 0.252982212813464002465 499.40610284715455691
0.318485736442795541734 691.98584038246099226 0.318485736442795541734 590.38223112690195649
0.400949786901819038576 838.35863384517836039 0.400949786901819038576 688.24723735676843717
0.504765875584169521062 1007.63730451901255947 0.504765875584169521062 788.78930849998675967
0.635462587779443310865 1199.74250269310596195 0.635462587779443310865 885.52647608835354731
0.799999999999997157829 1412.80884389936636580 0.799999999999997157829 969.69657932422762769
1.007140329435330272645 1642.69786938718016245 1.007140329435330272645 1030.97039984944558455
1.267914553968893187630 1882.78878656212896203 1.267914553968893187630 1059.18382681556636271
1.596209851975103788391 2124.30472942658389002 1.596209851975103788391 1047.02384094852141061
2.009509145207687197399 2357.34921014241990633 2.009509145207687197399 992.94110759282852996
2.529822128134711078928 2572.56465711073087732 2.529822128134711078928 902.94355432793361160
3.184857364427983839050 2762.96086762606955745 3.184857364427983839050 789.96031903186042200
4.009497869018190385759 2925.22758929251403970 4.009497869018190385759 670.43981093802403848
5.009497869018190385759 3055.94204139703379042 5.009497869018190385759 562.52524960044070212
6.009497869018190385759 3145.88819324062615124 6.009497869018190385759 486.82891515739083843
7.009497869018204596614 3212.07325712471492807 7.009497869018204596614 434.16770952385667215
8.009497869018190385759 3263.40763946117431260 8.009497869018190385759 397.10402653560748831
9.009497869018204596614 3304.88675894055904791 9.009497869018204596614 371.12899567503467324
10.009497869018190385759 3339.48049987511467407 10.009497869018190385759 352.59784030467710636
11.009497869018190385759 3369.05074076100981983 11.009497869018190385759 337.56643348936711391
12.009497869018190385759 3394.81738932209964332 12.009497869018190385759 326.10501911892635007
13.009497869018190385759 3417.61419465284734542 13.009497869018190385759 317.18006636773009177
14.009497869018204596614 3438.03115293629025473 14.009497869018204596614 310.09162597781221393
15.009497869018190385759 3456.49901928185863653 15.009497869018190385759 304.35513367591937595
16.009497869018190385759 3473.34103724419082937 16.009497869018190385759 299.63135357891081867
17.009497869018190385759 3488.80577037062903401 17.009497869018190385759 295.76842751467364678
18.009497869018190385759 3503.08840761115106943 18.009497869018190385759 292.38634090807164512
19.009497869018204596614 3516.34453376495412158 19.009497869018204596614 289.58902557704249148
20.009497869018190385759 3528.70081449135841467 20.009497869018190385759 287.02331346006224067
21.009497869018204596614 3540.26189727620612757 21.009497869018204596614 284.76315267054604874
22.009497869018190385759 3551.11456709239018892 22.009497869018190385759 282.75090218490743155
23.009497869018190385759 3561.33228101618396977 23.009497869018190385759 280.97342317770323916
24.009497869018190385759 3570.97769666383328513 24.009497869018190385759 279.32649934058719055
25.009497869018190385759 3580.10429778574462034 25.009497869018190385759 277.82123817160612589
26.009497869018204596614 3588.75885362548842750 26.009497869018204596614 276.46607669604213697
27.009497869018190385759 3596.98163206991648622 27.009497869018190385759 275.17501109624612354
28.009497869018190385759 3604.80841336826097177 28.009497869018190385759 273.97101493718980691
29.009497869018190385759 3612.27036450190189498 29.009497869018190385759 272.85071069375709385
30.009497869018190385759 3619.39546274826989247 30.009497869018190385759 271.78425121930530395
31.009497869018190385759 3626.20840399885400984 31.009497869018190385759 270.77479678121636653
32.009497869018190385759 3632.73142383514323228 32.009497869018190385759 269.81407921627607038
33.009497869018190385759 3638.98448561561735914 33.009497869018190385759 268.90199464471072588
34.009497869018190385759 3644.98551963377440188 34.009497869018190385759 268.02049404818660605
35.009497869018190385759 3650.75091713089295808 35.009497869018190385759 267.16996505019687902
36.009497869018190385759 3656.29539785177394151 36.009497869018190385759 266.35080095865572503
37.009497869018190385759 3661.63245871241679197 37.009497869018190385759 265.55819994122055050
38.009497869018190385759 3666.77444164427697615 38.009497869018190385759 264.78921527920647350
39.009497869018190385759 3671.73257654594726773 39.009497869018190385759 264.03563186312584321
40.009497869018190385759 3676.51723790653886681 40.009497869018190385759 263.29198318266435308
41.009497869018190385759 3681.13797902204350976 41.009497869018190385759 262.58630421985407111
42.009497869018190385759 3685.60356925822998164 42.009497869018190385759 261.88016372634331219
43.009497869018190385759 3689.92214591297624793 43.009497869018190385759 261.20494087433587538
44.009497869018218807469 3694.10125764100030210 44.009497869018218807469 260.52484662090785150
46.009497869018190385759 3702.06852687503669586 46.009497869018190385759 259.20497411684067401
48.009497869018190385759 3709.55569690609900135 48.009497869018190385759 257.93495315275140456
50.009497869018190385759 3716.60655464848468910 50.009497869018190385759 256.67766171598981373
52.009497869018190385759 3723.25939404830751300 52.009497869018190385759 255.45598153127153296
54.009497869018190385759 3729.54801689693931621 54.009497869018190385759 254.27581925272210128
56.009497869018190385759 3735.50221846171871221 56.009497869018190385759 253.11933454876938754
58.009497869018218807469 3741.14864009622215235 58.009497869018218807469 251.93033891101265453
60.009497869018190385759 3746.51089903804995629 60.009497869018190385759 250.81878922405971366
62.009497869018190385759 3751.61034282091486602 62.009497869018190385759 249.72710867743600716
64.009497869018190385759 3756.46603854951172252 64.009497869018190385759 248.65417451274535665
66.009497869018190385759 3761.09527212213060920 66.009497869018190385759 247.58172224434756004
68.009497869018190385759 3765.51374089145292601 68.009497869018190385759 246.51697318498383993
70.009497869018190385759 3769.73551098511279633 70.009497869018190385759 245.50374880082736695
72.009497869018218807469 3773.77366059568612400 72.009497869018218807469 244.49216224891603133
74.009497869018190385759 3777.63995621341882725 74.009497869018190385759 243.51045685815415709
76.009497869018190385759 3781.34516360143425118 76.009497869018190385759 242.54925281172774021
78.009497869018190385759 3784.89931860555680032 78.009497869018190385759 241.60131796146592364
80.009497869018190385759 3788.31147083241876317 80.009497869018190385759 240.67999580228777745
82.009497869018218807469 3791.58998887657799060 82.009497869018218807469 239.78232357908876793
84.009497869018190385759 3794.74272730834809408 84.009497869018190385759 238.91520475745736007
86.009497869018190385759 3797.77678301640617065 86.009497869018190385759 238.05142140041712651
88.009497869018190385759 3800.69873230554730981 88.009497869018190385759 237.22250892925436005
91.009497869018218807469 3804.88503850464257994 91.009497869018218807469 236.00822167355525494
94.009497869018190385759 3808.85197085262871042 94.009497869018190385759 234.84181667616533673
97.009497869018190385759 3812.61657731231707658 97.009497869018190385759 233.71445817415155943
99.504748934509109403734 3815.60479494110632004 99.504748934509109403734 232.99133359779116859
nan nan nan nan

