Time Pressure difference Time.1 Pressure.1 difference.1
(hr) (psi) (hr) (psi)
0.000200000000006639311 0.19724810832301840 0.000200000000006639311 0.15723913856260460
0.000399999999999067768 0.39438450292233440 0.000399999999999067768 0.41157790045499476
0.000600000000005707079 0.59142622046406357 0.000600000000005707079 0.60217914296053954
0.000799999999998135536 0.78838142141157674 0.000799999999998135536 0.79621974712487553
0.001007140329434719206 0.99228107960795264 0.001007140329434719206 0.99991640814495608
0.001267914553963578328 1.24885514313544088 0.001267914553963578328 1.25816380953100948
0.001596209851982166583 1.57167932045684999 0.001596209851982166583 1.58293393590966036
0.002009509145210586212 1.97781111363934481 0.002009509145210586212 1.99126926088540301
0.002529822128138903281 2.48867362661170777 0.002529822128138903281 2.50452815105897564
0.003184857364445292660 3.13115874449897769 0.003184857364445292660 3.14945061097659007
0.004009497869020606231 3.93900141405937898 0.004009497869020606231 3.95947228850532218
0.005047658755842121536 4.95448743844824424 0.005047658755842121536 4.97633625050753636
0.006354625877804664924 6.23056921006533670 0.006354625877804664924 6.25205704677527230
0.008000000000009777068 7.83347673642269537 0.008000000000009777068 7.85129383925351831
0.010071403294347192059 9.84592427249203794 0.010071403294347192059 9.85418615308712553
0.012679145539692626699 12.37102417914540631 0.012679145539692626699 12.35969274487061398
0.015962098519750611558 15.53702635523089448 0.015962098519750611558 15.48944442208501826
0.020095091452091651263 19.50299891117119344 0.020095091452091651263 19.39206520425778990
0.025298221281346400247 24.46554599755040016 0.025298221281346400247 24.24781811544064425
0.031848573644282396344 30.66661012921494844 0.031848573644282396344 30.27327120230439306
0.040094978690191851456 38.40231155608490354 0.040094978690191851456 37.72542792256261635
0.050476587558421215363 48.03261142457746047 0.050476587558421215363 46.90438828859977605
0.063546258777947173257 59.99131479987695315 0.063546258777947173257 58.15306224977435789
0.079999999999998294697 74.79551048347860842 0.079999999999998294697 71.85170518167258535
0.100714032943542974863 93.05292511989603099 0.100714032943542974863 88.40406289614310253
0.126791455396897845276 115.46479533454406408 0.126791455396897845276 108.21071880755930295
0.159620985197506115583 142.82069189931567621 0.159620985197506115583 131.62394143477146713
0.200950914520774404082 175.98026534320948144 0.200950914520774404082 158.87724658306848369
0.252982212813464002465 215.83523022097719490 0.252982212813464002465 189.98273896432684182
0.318485736442795541734 263.24340958369703003 0.318485736442795541734 224.59163527620509626
0.400949786901819038576 318.92615765859909516 0.400949786901819038576 261.82118018226981349
0.504765875584169521062 383.32269850883778872 0.504765875584169521062 300.06912698956159602
0.635462587779443310865 456.40284612883806403 0.635462587779443310865 336.86962252478298296
0.799999999999997157829 537.45697592961448663 0.799999999999997157829 368.88938892430491023
1.007140329435330272645 624.91074646029164796 1.007140329435330272645 392.19901246279067664
1.267914553968893187630 716.24549344337822276 1.267914553968893187630 402.93188917381894498
1.596209851975103788391 808.12234490224784622 1.596209851975103788391 398.30601975088211475
2.009509145207687197399 896.77650530297501064 2.009509145207687197399 377.73201043258490017
2.529822128134711078928 978.64819219140167661 2.529822128134711078928 343.49538102041771026
3.184857364427983839050 1051.07821127990109744 3.184857364427983839050 300.51459969590837318
4.009497869018190385759 1112.80728517227248631 4.009497869018190385759 255.04692647241043346
5.009497869018190385759 1162.53332874975444611 5.009497869018190385759 213.99435658957375495
6.009497869018190385759 1196.75040417018999506 6.009497869018190385759 185.19815873563663899
7.009497869018204596614 1221.92834982111935460 7.009497869018204596614 165.16492320570469587
8.009497869018190385759 1241.45683876773409793 8.009497869018190385759 151.06525568047990760
9.009497869018204596614 1257.23621487786908801 9.009497869018204596614 141.18390365165842582
10.009497869018190385759 1270.39627362825376622 10.009497869018190385759 134.13433090242128287
11.009497869018190385759 1281.64530587537615247 11.009497869018190385759 128.41612317332266002
12.009497869018190385759 1291.44738566506862298 12.009497869018190385759 124.05600245776167867
13.009497869018190385759 1300.11968560629998137 13.009497869018190385759 120.66079571292461026
14.009497869018204596614 1307.88665047496101579 14.009497869018204596614 117.96423010712919677
15.009497869018190385759 1314.91214698202315958 15.009497869018190385759 115.78196899067880565
16.009497869018190385759 1321.31914257925086531 16.009497869018190385759 113.98496115281197660
17.009497869018190385759 1327.20219514901941693 17.009497869018190385759 112.51543711232369560
18.009497869018190385759 1332.63555795159368245 18.009497869018190385759 111.22883273709948071
19.009497869018204596614 1337.67841814172425075 19.009497869018204596614 110.16468549239016284
20.009497869018190385759 1342.37896153202564165 20.009497869018190385759 109.18864412525640262
21.009497869018204596614 1346.77699784022615859 21.009497869018204596614 108.32883977996698377
22.009497869018190385759 1350.90554157447240868 22.009497869018190385759 107.56334481191503016
23.009497869018190385759 1354.79253707999305334 23.009497869018190385759 106.88716098413429734
24.009497869018190385759 1358.46182040020607928 24.009497869018190385759 106.26064260629078717
25.009497869018190385759 1361.93373768093329090 25.009497869018190385759 105.68801516319527423
26.009497869018204596614 1365.22608075319544696 26.009497869018204596614 105.17248824552486042
27.009497869018190385759 1368.35416821921376140 27.009497869018190385759 104.68134451012895170
28.009497869018190385759 1371.33161150606406409 28.009497869018190385759 104.22332349938038476
29.009497869018190385759 1374.17026707375725891 29.009497869018190385759 103.79714034417405344
30.009497869018190385759 1376.88077796362745175 30.009497869018190385759 103.39144067251260140
31.009497869018190385759 1379.47253892091225680 31.009497869018190385759 103.00742670489290731
32.009497869018190385759 1381.95400874627443955 32.009497869018190385759 102.64195308869571477
33.009497869018190385759 1384.33278184735377181 33.009497869018190385759 102.29498030625434524
34.009497869018190385759 1386.61567921862706498 34.009497869018190385759 101.95964219810630880
35.009497869018190385759 1388.80893637242638761 35.009497869018190385759 101.63608622294808015
36.009497869018190385759 1390.91815295484821036 36.009497869018190385759 101.32446200192842412
37.009497869018190385759 1392.94846342671371531 37.009497869018190385759 101.02294283478212833
38.009497869018190385759 1394.90456287270239955 38.009497869018190385759 100.73040773863876041
39.009497869018190385759 1396.79072334091415541 39.009497869018190385759 100.44373154343632848
40.009497869018190385759 1398.61089146685344531 40.009497869018190385759 100.16083469388675553
41.009497869018190385759 1400.36870148992670693 41.009497869018190385759 99.89238218315476558
42.009497869018190385759 1402.06748942889316822 42.009497869018190385759 99.62375409814343641
43.009497869018190385759 1403.71035085292987787 43.009497869018190385759 99.36688761993194419
44.009497869018218807469 1405.30015740115095468 44.009497869018218807469 99.10816797617201246
46.009497869018190385759 1408.33104473416301516 46.009497869018190385759 98.60606559501002266
48.009497869018190385759 1411.17929400761704528 48.009497869018190385759 98.12292760385564350
50.009497869018190385759 1413.86156252277828571 50.009497869018190385759 97.64463214556917592
52.009497869018190385759 1416.39241796059218359 52.009497869018190385759 97.17988382489784271
54.009497869018190385759 1418.78471910846656101 54.009497869018190385759 96.73092963546572776
56.009497869018190385759 1421.04980060261209474 56.009497869018190385759 96.29098280587213310
58.009497869018218807469 1423.19779727576997175 58.009497869018218807469 95.83866825346709106
60.009497869018190385759 1425.23769353453917574 60.009497869018190385759 95.41581548331005536
62.009497869018190385759 1427.17761035081343834 62.009497869018190385759 95.00052127857517803
64.009497869018190385759 1429.02480118175617463 64.009497869018190385759 94.59235852250506582
66.009497869018190385759 1430.78584188273680411 66.009497869018190385759 94.18437908813864112
68.009497869018190385759 1432.46670399883510072 68.009497869018190385759 93.77933008802754955
70.009497869018190385759 1434.07273852884713961 70.009497869018190385759 93.39388196756996763
72.009497869018218807469 1435.60892064394465706 72.009497869018218807469 93.00905690689101846
74.009497869018190385759 1437.07972652099556399 74.009497869018190385759 92.63559915791738320
76.009497869018190385759 1438.48925164292109002 76.009497869018190385759 92.26994047572949853
78.009497869018190385759 1439.84131381944939676 78.009497869018190385759 91.90932962579040577
80.009497869018190385759 1441.13935567782232283 80.009497869018190385759 91.55884270488314769
82.009497869018218807469 1442.38656077648306564 82.009497869018218807469 91.21735262960520174
84.009497869018190385759 1443.58591713014220659 84.009497869018190385759 90.88748559794125015
86.009497869018190385759 1444.74012451827979930 86.009497869018190385759 90.55888743482962866
88.009497869018190385759 1445.85168468124356878 88.009497869018190385759 90.24355476120912556
91.009497869018218807469 1447.44422813097958169 91.009497869018218807469 89.78161883889660544
94.009497869018190385759 1448.95331796480422781 94.009497869018190385759 89.33789815770654741
97.009497869018190385759 1450.38543952330519460 97.009497869018190385759 88.90903144024706251
99.504748934509109403734 1451.52220931146393923 99.504748934509109403734 88.63394231569262161
nan nan nan nan

