Time Pressure difference Time.1 Pressure.1 difference.1
(hr) (psi) (hr) (psi)
0.000200000000006639311 0.33623728169830985 0.000200000000006639311 0.26803633746536815
0.000399999999999067768 0.67228413156381051 0.000399999999999067768 0.70159270794859863
0.000600000000005707079 1.00816959100203252 0.000600000000005707079 1.02649946732513908
0.000799999999998135536 1.34390757067627442 0.000799999999998135536 1.35726910480358520
0.001007140329434719206 1.69148335933170002 0.001007140329434719206 1.70449885607832186
0.001267914553963578328 2.12885011741231223 0.001267914553963578328 2.14471805506551849
0.001596209851982166583 2.67914955892222517 0.001596209851982166583 2.69833464180380922
0.002009509145210586212 3.37145860721643631 0.002009509145210586212 3.39439992150929415
0.002529822128138903281 4.24229597110181444 0.002529822128138903281 4.26932224906255797
0.003184857364445292660 5.33750266994762423 0.003184857364445292660 5.36868374191790032
0.004009497869020606231 6.71458468894510130 0.004009497869020606231 6.74948018800063387
0.005047658755842121536 8.44562415667970612 0.005047658755842121536 8.48286854516896405
0.006354625877804664924 10.62088591082867595 0.006354625877804664924 10.65751496581101243
0.008000000000009777068 13.35326836082180968 0.008000000000009777068 13.38364013104819072
0.010071403294347192059 16.78376964593579501 0.010071403294347192059 16.79785318922868598
0.012679145539692626699 21.08815936023098558 0.012679145539692626699 21.06884332880897759
0.015962098519750611558 26.48505758444422398 0.015962098519750611558 26.40394745368078944
0.020095091452091651263 33.24561839710194278 0.020095091452091651263 33.05651621316517463
0.025298221281346400247 41.70498136291291758 0.025298221281346400247 41.33383341197476568
0.031848573644282396344 52.27557169705838902 0.031848573644282396344 51.60506989759904428
0.040094978690191851456 65.46216822218691789 0.040094978690191851456 64.30832439120379718
0.050476587558421215363 81.87837559295061851 0.050476587558421215363 79.95515978309835248
0.063546258777947173257 102.26367586139362231 0.063546258777947173257 99.13011455235798053
0.079999999999998294697 127.49951998027576394 0.079999999999998294697 122.48138773584690853
0.100714032943542974863 158.62186391745990477 0.100714032943542974863 150.69722113941693920
0.126791455396897845276 196.82606462091052890 0.126791455396897845276 184.46046581541753540
0.159620985197506115583 243.45805707731449274 0.159620985197506115583 224.37161324745852653
0.200950914520774404082 299.98323712513348482 0.200950914520774404082 270.82872413316312077
0.252982212813464002465 367.92165826698220599 0.252982212813464002465 323.85243266492841485
0.318485736442795541734 448.73560114689291822 0.318485736442795541734 382.84818840332002310
0.400949786901819038576 543.65471600875127933 0.400949786901819038576 446.31121009973423952
0.504765875584169521062 653.42772235261816149 0.504765875584169521062 511.51024178811348975
0.635462587779443310865 778.00316386519239131 0.635462587779443310865 574.24188818570610238
0.799999999999997157829 916.17138512896303837 0.799999999999997157829 628.82410601442688858
1.007140329435330272645 1065.24869860741705452 1.007140329435330272645 668.55865415598077561
1.267914553968893187630 1220.94168502584307134 1.267914553968893187630 686.85435960431584590
1.596209851975103788391 1377.55876514982332992 1.596209851975103788391 678.96891130530127612
2.009509145207687197399 1528.68231283713862467 2.009509145207687197399 643.89760428170586692
2.529822128134711078928 1668.24417571867616061 2.529822128134711078928 585.53643009387656093
3.184857364427983839050 1791.71138125350239534 3.184857364427983839050 512.26961298374260423
4.009497869018190385759 1896.93731312066734063 4.009497869018190385759 434.76353710908779249
5.009497869018190385759 1981.70238318523547605 5.009497869018190385759 364.78362895437891211
6.009497869018190385759 2040.03022483019708488 6.009497869018190385759 315.69643936370124493
7.009497869018204596614 2082.94959210013621487 7.009497869018204596614 281.54695770086374296
8.009497869018190385759 2116.23866186567374825 8.009497869018190385759 257.51208141313873057
9.009497869018204596614 2143.13683886354101560 9.009497869018204596614 240.66792014881860950
10.009497869018190385759 2165.57001918065225254 10.009497869018190385759 228.65092693914854749
11.009497869018190385759 2184.74558469895328017 11.009497869018190385759 218.90343359503103216
12.009497869018190385759 2201.45461522653022257 12.009497869018190385759 211.47099153137435223
13.009497869018190385759 2216.23777630778522507 13.009497869018190385759 205.68338172160989075
14.009497869018204596614 2229.47766578854134423 14.009497869018204596614 201.08670448641433381
15.009497869018190385759 2241.45361764024210061 15.009497869018190385759 197.36673195035544381
16.009497869018190385759 2252.37524726589617785 16.009497869018190385759 194.30347808327442749
17.009497869018190385759 2262.40374194178821199 17.009497869018190385759 191.79846663872899626
18.009497869018190385759 2271.66567684575466046 18.009497869018190385759 189.60526761935943796
19.009497869018204596614 2280.26194484918369199 19.009497869018204596614 187.79127822331486186
20.009497869018190385759 2288.27468548075239596 20.009497869018190385759 186.12747774938222278
21.009497869018204596614 2295.77176003144040806 21.009497869018204596614 184.66181970931080514
22.009497869018190385759 2302.80944639699146137 22.009497869018190385759 183.35692533339101828
23.009497869018190385759 2309.43537966378562487 23.009497869018190385759 182.20427442021204456
24.009497869018190385759 2315.69019173706055881 24.009497869018190385759 181.13628528667291562
25.009497869018190385759 2321.60856549829986761 25.009497869018190385759 180.16016086890670067
26.009497869018204596614 2327.22082963835828195 26.009497869018204596614 179.28137236789891062
27.009497869018190385759 2332.55309688000988899 27.009497869018190385759 178.44414844764597206
28.009497869018190385759 2337.62856982468292699 28.009497869018190385759 177.66338689345852231
29.009497869018190385759 2342.46745948437956031 29.009497869018190385759 176.93689746433045684
30.009497869018190385759 2347.08790842744974725 30.009497869018190385759 176.24532502824933999
31.009497869018190385759 2351.50593132509948191 31.009497869018190385759 175.59071893998620340
32.009497869018190385759 2355.73594739871259662 32.009497869018190385759 174.96771750140536028
33.009497869018190385759 2359.79090238958178816 33.009497869018190385759 174.37625334905803243
34.009497869018190385759 2363.68242364694197022 34.009497869018190385759 173.80462214360736084
35.009497869018190385759 2367.42114048295434259 35.009497869018190385759 173.25307524924483005
36.009497869018190385759 2371.01659828590163670 36.009497869018190385759 172.72186771636742719
37.009497869018190385759 2374.47754947000976244 37.009497869018190385759 172.20788567616870068
38.009497869018190385759 2377.81199747076698259 38.009497869018190385759 171.70921825489475054
39.009497869018190385759 2381.02722459801407240 39.009497869018190385759 171.22053815843153757
40.009497869018190385759 2384.12995844982560811 40.009497869018190385759 170.73830049084494931
41.009497869018190385759 2387.12639410097199288 41.009497869018190385759 170.28068524048322274
42.009497869018190385759 2390.02221826697405049 42.009497869018190385759 169.82277069894493593
43.009497869018190385759 2392.82270778305337444 43.009497869018190385759 169.38490547870256364
44.009497869018218807469 2395.53275776398731978 44.009497869018218807469 168.94388127583749792
46.009497869018190385759 2400.69933363967038531 46.009497869018190385759 168.08797679486940524
48.009497869018190385759 2405.55457712690849803 48.009497869018190385759 167.26439979728979779
50.009497869018190385759 2410.12688295022098828 50.009497869018190385759 166.44907758147655841
52.009497869018190385759 2414.44108378092505518 52.009497869018190385759 165.65684837661910933
54.009497869018190385759 2418.51909923974881167 54.009497869018190385759 164.89154250096265741
56.009497869018190385759 2422.38025081626710744 56.009497869018190385759 164.14159094334320343
58.009497869018218807469 2426.04181476544772522 58.009497869018218807469 163.37055685401142568
60.009497869018190385759 2429.51910627828601719 60.009497869018190385759 162.64974453695043621
62.009497869018190385759 2432.82596869927692751 62.009497869018190385759 161.94181686305640255
64.009497869018190385759 2435.97476657143261036 64.009497869018190385759 161.24604575144323348
66.009497869018190385759 2438.97670936972826894 66.009497869018190385759 160.55058713758654676
68.009497869018190385759 2441.84197643683273782 68.009497869018190385759 159.86012386313558409
70.009497869018190385759 2444.57968930655806616 70.009497869018190385759 159.20307305864247382
72.009497869018218807469 2447.19832886140784467 72.009497869018218807469 158.54708434761167268
74.009497869018190385759 2449.70552537756157108 74.009497869018190385759 157.91047282615454606
76.009497869018190385759 2452.10826018455736630 76.009497869018190385759 157.28715591643339167
78.009497869018190385759 2454.41304127872399476 78.009497869018190385759 156.67244375029250136
80.009497869018190385759 2456.62573710481092348 80.009497869018190385759 156.07498925220585306
82.009497869018218807469 2458.75177448818203629 82.009497869018218807469 155.49287114920042541
84.009497869018190385759 2460.79624692226752813 84.009497869018190385759 154.93056616695469074
86.009497869018190385759 2462.76375656280606563 86.009497869018190385759 154.37042415051126909
88.009497869018190385759 2464.65856797984133664 88.009497869018190385759 153.83289503598516035
91.009497869018218807469 2467.37328339626901652 91.009497869018218807469 153.04545996166342547
94.009497869018190385759 2469.94574032818945852 94.009497869018190385759 152.28907534056307327
97.009497869018190385759 2472.38699395533876668 97.009497869018190385759 151.55801140025238283
99.504748934509109403734 2474.32477874190499278 99.504748934509109403734 151.08908310354357241
nan nan nan nan

