Time Pressure difference Time.1 Pressure.1 difference.1
(hr) (psi) (hr) (psi)
0.000200000000006639311 0.61088654645187979 0.000200000000006639311 0.48697691014747579
0.000399999999999067768 1.22142711031642826 0.000399999999999067768 1.27467586048086989
0.000600000000005707079 1.83167445493933623 0.000600000000005707079 1.86497675499171311
0.000799999999998135536 2.44165385365441923 0.000799999999998135536 2.46592951219265233
0.001007140329434719206 3.07314055878581094 0.001007140329434719206 3.09678752564724791
0.001267914553963578328 3.86776234203128100 0.001267914553963578328 3.89659171390616477
0.001596209851982166583 4.86756380259632060 0.001596209851982166583 4.90241986901979221
0.002009509145210586212 6.12537281608134698 0.002009509145210586212 6.16705332274213358
0.002529822128138903281 7.70753772967507889 0.002529822128138903281 7.75663992775227129
0.003184857364445292660 9.69734395975632779 0.003184857364445292660 9.75399471922707839
0.004009497869020606231 12.19927020219233782 0.004009497869020606231 12.26266945047640000
0.005047658755842121536 15.34427755198738730 0.005047658755842121536 15.41194433701490141
0.006354625877804664924 19.29636202610952722 0.006354625877804664924 19.36291085372594623
0.008000000000009777068 24.26064103179012221 0.008000000000009777068 24.31582142621131837
0.010071403294347192059 30.49328445573483393 0.010071403294347192059 30.51887188340063517
0.012679145539692626699 38.31363606537016153 0.012679145539692626699 38.27854208748957632
0.015962098519750611558 48.11889174995559415 0.015962098519750611558 47.97152829455866652
0.020095091452091651263 60.40169283037828762 0.020095091452091651263 60.05812599124564599
0.025298221281346400247 75.77093148608436479 0.025298221281346400247 75.09661812967692640
0.031848573644282396344 94.97591491495261096 0.031848573644282396344 93.75772600207352525
0.040094978690191851456 118.93374127496336712 0.040094978690191851456 116.83740124540489091
0.050476587558421215363 148.75922694362807874 0.050476587558421215363 145.26506752671826916
0.063546258777947173257 185.79588634223495092 0.063546258777947173257 180.10273287482860383
0.079999999999998294697 231.64516748891688280 0.079999999999998294697 222.52806583691000242
0.100714032943542974863 288.18922800845439269 0.100714032943542974863 273.79148593151489877
0.126791455396897845276 357.59983027660479138 0.126791455396897845276 335.13361858543680682
0.159620985197506115583 442.32231162066540264 0.159620985197506115583 407.64545575157069379
0.200950914520774404082 545.01904962833657464 0.200950914520774404082 492.05020671718250469
0.252982212813464002465 668.45172566327948971 0.252982212813464002465 588.38536033677598880
0.318485736442795541734 815.27705752925589877 0.318485736442795541734 695.57071853474485579
0.400949786901819038576 987.72911274857278840 0.400949786901819038576 810.87234706238837134
0.504765875584169521062 1187.16818863074672663 0.504765875584169521062 929.32801354573086883
0.635462587779443310865 1413.50079771547302698 0.635462587779443310865 1043.30085625818878725
0.799999999999997157829 1664.52919971450228331 0.799999999999997157829 1142.46755894700322642
1.007140329435330272645 1935.37758608377248493 1.007140329435330272645 1214.65854492695530098
1.267914553968893187630 2218.24553665586336137 1.267914553968893187630 1247.89876225140551469
1.596209851975103788391 2502.79240995042164286 1.596209851975103788391 1233.57222994577000463
2.009509145207687197399 2777.35845946153449404 2.009509145207687197399 1169.85356817517845229
2.529822128134711078928 3030.91887370670383461 2.529822128134711078928 1063.82113784382545418
3.184857364427983839050 3255.23800455463106118 3.184857364427983839050 930.70766319323524840
4.009497869018190385759 3446.41581146180669748 4.009497869018190385759 789.89216890611498911
5.009497869018190385759 3600.41967638109645122 5.009497869018190385759 662.75045458543092991
6.009497869018190385759 3706.39154709248714425 6.009497869018190385759 573.56729329939787476
7.009497869018204596614 3784.36881337004933812 7.009497869018204596614 511.52343305057911493
8.009497869018190385759 3844.84945002327776820 8.009497869018190385759 467.85610831000951748
9.009497869018204596614 3893.71891021247256504 9.009497869018204596614 437.25310244859616660
10.009497869018190385759 3934.47622296682857268 10.009497869018190385759 415.42024844884906543
11.009497869018190385759 3969.31499794314731844 11.009497869018190385759 397.71069370978409552
12.009497869018190385759 3999.67249400067612441 12.009497869018190385759 384.20719748521980819
13.009497869018190385759 4026.53100943048139015 13.009497869018190385759 373.69208461302389424
14.009497869018204596614 4050.58566012076562401 14.009497869018204596614 365.34069577482210889
15.009497869018190385759 4072.34394888103406629 15.009497869018190385759 358.58213181079429432
16.009497869018190385759 4092.18671161675138137 16.009497869018190385759 353.01671513149369730
17.009497869018190385759 4110.40679847839783179 17.009497869018190385759 348.46553097234425422
18.009497869018190385759 4127.23417525936565653 18.009497869018190385759 344.48085750645998360
19.009497869018204596614 4142.85214732500207901 19.009497869018204596614 341.18514409879486493
20.009497869018190385759 4157.40994837344624102 20.009497869018190385759 338.16229868328355224
21.009497869018204596614 4171.03087094821148639 21.009497869018204596614 335.49944471939136292
22.009497869018190385759 4183.81716251334546541 22.009497869018190385759 333.12867127403222867
23.009497869018190385759 4195.85536800301633775 23.009497869018190385759 331.03449857533576051
24.009497869018190385759 4207.21930875000543892 24.009497869018190385759 329.09414208024236359
25.009497869018190385759 4217.97199771225768927 25.009497869018190385759 327.32068831133051390
26.009497869018204596614 4228.16853701622585504 26.009497869018204596614 325.72407751989555891
27.009497869018190385759 4237.85636908397827938 27.009497869018190385759 324.20298257567361588
28.009497869018190385759 4247.07764913692335540 28.009497869018190385759 322.78447024702614954
29.009497869018190385759 4255.86909718201604846 29.009497869018190385759 321.46456123469943122
30.009497869018190385759 4264.26367521224710799 30.009497869018190385759 320.20809052162127273
31.009497869018190385759 4272.29047918966080033 31.009497869018190385759 319.01878144046997932
32.009497869018190385759 4279.97570641251240886 32.009497869018190385759 317.88689268819689460
33.009497869018190385759 4287.34287711374508945 33.009497869018190385759 316.81230187675390653
34.009497869018190385759 4294.41311622983994312 34.009497869018190385759 315.77374419160349817
35.009497869018190385759 4301.20573543190312193 35.009497869018190385759 314.77167631917257040
36.009497869018190385759 4307.73807708379172254 36.009497869018190385759 313.80656164310323675
37.009497869018190385759 4314.02604284897915932 37.009497869018190385759 312.87274278789067239
38.009497869018190385759 4320.08417362263116956 38.009497869018190385759 311.96674801755631279
39.009497869018190385759 4325.92570013599561207 39.009497869018190385759 311.07889853536818237
40.009497869018190385759 4331.56284530240645836 40.009497869018190385759 310.20275386207970314
41.009497869018190385759 4337.00686452998343157 41.009497869018190385759 309.37134397652152984
42.009497869018190385759 4342.26808962366158084 42.009497869018190385759 308.53939032927121389
43.009497869018190385759 4347.35610770485436660 43.009497869018190385759 307.74386292417739242
44.009497869018218807469 4352.27981237318454077 44.009497869018218807469 306.94259617936819495
46.009497869018190385759 4361.66661111761914071 46.009497869018190385759 305.38756180057953316
48.009497869018190385759 4370.48777131472979818 48.009497869018190385759 303.89126101784830780
50.009497869018190385759 4378.79488139965906157 50.009497869018190385759 302.40995778416782969
52.009497869018190385759 4386.63305815643252572 52.009497869018190385759 300.97061066445155575
54.009497869018190385759 4394.04212584647393669 54.009497869018190385759 299.58017870224404078
56.009497869018190385759 4401.05718836420783191 56.009497869018190385759 298.21764295151962187
58.009497869018218807469 4407.70963375702558551 58.009497869018218807469 296.81680378921879537
60.009497869018190385759 4414.02728714916338504 60.009497869018190385759 295.50720913396440892
62.009497869018190385759 4420.03529956749844132 62.009497869018190385759 294.22102370664208593
64.009497869018190385759 4425.75613530552436714 64.009497869018190385759 292.95692470683002284
66.009497869018190385759 4431.21016009252616641 66.009497869018190385759 291.69339346284289149
68.009497869018190385759 4436.41586808078045578 68.009497869018190385759 290.43893790975619140
70.009497869018190385759 4441.38983156191443413 70.009497869018190385759 289.24518719070192674
72.009497869018218807469 4446.14745887196477270 72.009497869018218807469 288.05336611670043112
74.009497869018190385759 4450.70261293844214379 74.009497869018190385759 286.89675013464710673
76.009497869018190385759 4455.06797766204272193 76.009497869018190385759 285.76428822441118882
78.009497869018190385759 4459.25537697669096815 78.009497869018190385759 284.64745968493735973
80.009497869018190385759 4463.27547285874061345 80.009497869018190385759 283.56198542356219150
82.009497869018218807469 4467.13812493645036739 82.009497869018218807469 282.50437481067598355
84.009497869018190385759 4470.85258723006063519 84.009497869018190385759 281.48276130332857292
86.009497869018190385759 4474.42722108192992891 86.009497869018190385759 280.46507754078038488
88.009497869018190385759 4477.86977449802907358 88.009497869018190385759 279.48847761488394781
91.009497869018218807469 4482.80195547738003370 91.009497869018218807469 278.05784062341825802
94.009497869018190385759 4487.47567673487810680 94.009497869018190385759 276.68361707914181125
97.009497869018190385759 4491.91102367133316875 97.009497869018190385759 275.35539694996344906
99.504748934509109403734 4495.43165246672833746 99.504748934509109403734 274.50343316336875432
nan nan nan nan

