Time Pressure difference Time.1 Pressure.1 difference.1
(hr) (psi) (hr) (psi)
0.000200000000006639311 0.13982144387454470 0.000200000000006639311 0.11146065518361845
0.000399999999999067768 0.27956369827405986 0.000399999999999067768 0.29175142310733804
0.000600000000005707079 0.41923883982262738 0.000600000000005707079 0.42686116463025581
0.000799999999998135536 0.55885265315251020 0.000799999999998135536 0.56440893467079778
0.001007140329434719206 0.70338911972209295 0.001007140329434719206 0.70880150450781698
0.001267914553963578328 0.88526440526056560 0.001267914553963578328 0.89186295359160161
0.001596209851982166583 1.11410179677953924 0.001596209851982166583 1.12207975203722765
0.002009509145210586212 1.40199268814940914 0.002009509145210586212 1.41153264062762718
0.002529822128138903281 1.76412307709184346 0.002529822128138903281 1.77536172733294473
0.003184857364445292660 2.21955556572079393 0.003184857364445292660 2.23252195208467175
0.004009497869020606231 2.79220353401677457 0.004009497869020606231 2.80671453362402623
0.005047658755842121536 3.51204172852027385 0.005047658755842121536 3.52752949403065852
0.006354625877804664924 4.41660602232479516 0.006354625877804664924 4.43183790657487631
0.008000000000009777068 5.55284426885659510 0.008000000000009777068 5.56547411390122804
0.010071403294347192059 6.97938935771587499 0.010071403294347192059 6.98524588066935515
0.012679145539692626699 8.76933359534358026 0.012679145539692626699 8.76130118623739662
0.015962098519750611558 11.01358830244215170 0.015962098519750611558 10.97985933717419016
0.020095091452091651263 13.82491062057704490 0.020095091452091651263 13.74627406884096459
0.025298221281346400247 17.34266551725091432 0.025298221281346400247 17.18832676537564552
0.031848573644282396344 21.73835654729160893 0.031848573644282396344 21.45953401682336548
0.040094978690191851456 27.22189173595891631 0.040094978690191851456 26.74207548941147294
0.050476587558421215363 34.04843341489035424 0.050476587558421215363 33.24868030584287482
0.063546258777947173257 42.52548897206467871 0.063546258777947173257 41.22242387325777457
0.079999999999998294697 53.01960236803547133 0.079999999999998294697 50.93285430599574681
0.100714032943542974863 65.96156717359718868 0.100714032943542974863 62.66617116688625799
0.126791455396897845276 81.84846251562616715 0.126791455396897845276 76.70633231928253792
0.159620985197506115583 101.23998413116048312 0.159620985197506115583 93.30304709300254729
0.200950914520774404082 124.74550454708520419 0.200950914520774404082 112.62184567913715227
0.252982212813464002465 152.99712521993319569 0.252982212813464002465 134.67130863294053711
0.318485736442795541734 186.60292324920297347 0.318485736442795541734 159.20419715781625314
0.400949786901819038576 226.07423834027281373 0.400949786901819038576 185.59476063553304925
0.504765875584169521062 271.72241919613821892 0.504765875584169521062 212.70722925842341056
0.635462587779443310865 323.52606814196116147 0.635462587779443310865 238.79365647326389421
0.799999999999997157829 380.98216015263813006 0.799999999999997157829 261.49121240203891148
1.007140329435330272645 442.97470635159913854 1.007140329435330272645 278.01448984704154554
1.267914553968893187630 507.71832446619220036 1.267914553968893187630 285.62260498397290576
1.596209851975103788391 572.84621917121376100 1.596209851975103788391 282.34350767151136097
2.009509145207687197399 635.68967464514685162 2.009509145207687197399 267.75939980031336063
2.529822128134711078928 693.72530079390503488 2.529822128134711078928 243.49039667270116638
3.184857364427983839050 745.06809913511983723 3.184857364427983839050 213.02300737937810027
4.009497869018190385759 788.82541733730715805 4.009497869018190385759 180.79275800575928201
5.009497869018190385759 824.07425835425647165 5.009497869018190385759 151.69220213944467446
6.009497869018190385759 848.32940042443851780 6.009497869018190385759 131.27970745817279408
7.009497869018204596614 866.17705810104666853 7.009497869018204596614 117.07893290530967079
8.009497869018190385759 880.02003760750767469 8.009497869018190385759 107.08423187477056615
9.009497869018204596614 891.20541814127443558 9.009497869018204596614 100.07972917079585784
10.009497869018190385759 900.53406738205342208 10.009497869018190385759 95.08256367766571771
11.009497869018190385759 908.50806492431718198 11.009497869018190385759 91.02915060387428525
12.009497869018190385759 915.45637464865603761 12.009497869018190385759 87.93843212195766057
13.009497869018190385759 921.60382777155439271 13.009497869018190385759 85.53170329017440565
14.009497869018204596614 927.10952438731430902 14.009497869018204596614 83.62021374682576891
15.009497869018190385759 932.08962317713030643 15.009497869018190385759 82.07329447440523040
16.009497869018190385759 936.63129094225371318 16.009497869018190385759 80.79946613363887309
17.009497869018190385759 940.80155605500101501 17.009497869018190385759 79.75777820620413650
18.009497869018190385759 944.65305373783860432 18.009497869018190385759 78.84575485161481367
19.009497869018204596614 948.22773944223479248 19.009497869018204596614 78.09142262751707619
20.009497869018190385759 951.55977019991689758 20.009497869018190385759 77.39954520271341210
21.009497869018204596614 954.67736555762860462 21.009497869018204596614 76.79006364149557839
22.009497869018190385759 957.60392820468939590 22.009497869018190385759 76.24743429705370090
23.009497869018190385759 960.35926679088106539 23.009497869018190385759 75.76811411533570606
24.009497869018190385759 962.96027775204493082 24.009497869018190385759 75.32399982218080936
25.009497869018190385759 965.42138367256040965 25.009497869018190385759 74.91808669796120057
26.009497869018204596614 967.75519648327781397 26.009497869018204596614 74.55264989556192745
27.009497869018190385759 969.97257494020209379 27.009497869018190385759 74.20449737426861248
28.009497869018190385759 972.08316764986807357 28.009497869018190385759 73.87982425272532794
29.009497869018190385759 974.09537919152410268 29.009497869018190385759 73.57771973764236861
30.009497869018190385759 976.01675399953342094 30.009497869018190385759 73.29013516026209629
31.009497869018190385759 977.85395164014039437 31.009497869018190385759 73.01792272751902146
32.009497869018190385759 979.61296822520716887 32.009497869018190385759 72.75885282236659179
33.009497869018190385759 981.29918713230142657 33.009497869018190385759 72.51289743228154805
34.009497869018190385759 982.91744349674809200 34.009497869018190385759 72.27518940625256505
35.009497869018190385759 984.47215742855530607 35.009497869018190385759 72.04583327196318976
36.009497869018190385759 985.96729829710761805 36.009497869018190385759 71.82493508997457354
37.009497869018190385759 987.40650572020228992 37.009497869018190385759 71.61119998414935139
38.009497869018190385759 988.79310785913082782 38.009497869018190385759 71.40383333371860886
39.009497869018190385759 990.13013300115426318 39.009497869018190385759 71.20061982825865243
40.009497869018190385759 991.42037876131382745 40.009497869018190385759 71.00008535262858800
41.009497869018190385759 992.66642130931506927 41.009497869018190385759 70.80978990198313738
42.009497869018190385759 993.87062541794966819 42.009497869018190385759 70.61936999362066558
43.009497869018190385759 995.03518541473511050 43.009497869018190385759 70.43728742678719357
44.009497869018218807469 996.16213689195512870 44.009497869018218807469 70.25389122361559657
46.009497869018190385759 998.31061398877386637 46.009497869018190385759 69.89797054836152768
48.009497869018190385759 1000.32962613198174040 48.009497869018190385759 69.55549298501159683
50.009497869018190385759 1002.23098102880476290 50.009497869018190385759 69.21644810318828434
52.009497869018190385759 1004.02500513662232606 52.009497869018190385759 68.88700625562378832
54.009497869018190385759 1005.72081354524209473 54.009497869018190385759 68.56876024792506996
56.009497869018190385759 1007.32644093349722425 56.009497869018190385759 68.25689920416252221
58.009497869018218807469 1008.84907148662171039 58.009497869018218807469 67.93627116701465241
60.009497869018190385759 1010.29507389790114757 60.009497869018190385759 67.63652743120712785
62.009497869018190385759 1011.67020480563985529 62.009497869018190385759 67.34214166582543726
64.009497869018190385759 1012.97960590099182809 64.009497869018190385759 67.05281110456054705
66.009497869018190385759 1014.22793854978795025 66.009497869018190385759 66.76361049285777938
68.009497869018190385759 1015.41943574600975353 68.009497869018190385759 66.47648715100686445
70.009497869018190385759 1016.55789060272707047 70.009497869018190385759 66.20325810359391028
72.009497869018218807469 1017.64682982355589047 72.009497869018218807469 65.93047071880882015
74.009497869018190385759 1018.68942639462977695 74.009497869018190385759 65.66574117523258280
76.009497869018190385759 1019.68858344308341657 76.009497869018190385759 65.40654008406141884
78.009497869018190385759 1020.64700726441981260 78.009497869018190385759 65.15091720309192169
80.009497869018190385759 1021.56713820200059217 80.009497869018190385759 64.90247077814501608
82.009497869018218807469 1022.45123295548171427 82.009497869018218807469 64.66040186402393886
84.009497869018190385759 1023.30140961124004662 84.009497869018190385759 64.42657206942671166
86.009497869018190385759 1024.11958193700843367 86.009497869018190385759 64.19364172595518880
88.009497869018190385759 1024.90752331834983124 88.009497869018190385759 63.97011476743936953
91.009497869018218807469 1026.03641487765639795 91.009497869018218807469 63.64266651871152192
94.009497869018190385759 1027.10614944340545662 94.009497869018190385759 63.32813033964009009
97.009497869018190385759 1028.12132421905175761 97.009497869018190385759 63.02412355258020682
99.504748934509109403734 1028.92713571445574416 99.504748934509109403734 62.82912366682008809
nan nan nan nan

