Time Pressure difference Time.1 Pressure.1 difference.1
(hr) (psi) (hr) (psi)
0.000200000000006639311 0.30294646172818018 0.000200000000006639311 0.24149808623117330
0.000399999999999067768 0.60572134626046303 0.000399999999999067768 0.63212808339923243
0.000600000000005707079 0.90835081961569264 0.000600000000005707079 0.92486585669888766
0.000799999999998135536 1.21084741516377203 0.000799999999998135536 1.22288602512006195
0.001007140329434719206 1.52400975939786831 0.001007140329434719206 1.53573659310027000
0.001267914553963578328 1.91807287806455884 0.001267914553963578328 1.93236973278180346
0.001596209851982166583 2.41388722635566833 0.001596209851982166583 2.43117279608066017
0.002009509145210586212 3.03765082432371969 0.002009509145210586212 3.05832072135985911
0.002529822128138903281 3.82226666703232798 0.002529822128138903281 3.84661707588804713
0.003184857364445292660 4.80903705906172174 0.003184857364445292660 4.83713089618345560
0.004009497869020606231 6.04977432370301216 0.004009497869020606231 6.08121482285205683
0.005047658755842121536 7.60942374512726083 0.005047658755842121536 7.64298057039975998
0.006354625877804664924 9.56931304837038965 0.006354625877804664924 9.60231546424556548
0.008000000000009777068 12.03116258252262227 0.008000000000009777068 12.05852724678599408
0.010071403294347192059 15.12201027505106410 0.010071403294347192059 15.13469940811693526
0.012679145539692626699 19.00022278991108848 0.012679145539692626699 18.98281923684769268
0.015962098519750611558 23.86277465529133224 0.015962098519750611558 23.78969523054407986
0.020095091452091651263 29.95397301125026601 0.020095091452091651263 29.78359381582209053
0.025298221281346400247 37.57577528737699168 0.025298221281346400247 37.24137465831389449
0.031848573644282396344 47.09977251913181107 0.031848573644282396344 46.49565703645063053
0.040094978690191851456 58.98076542791098120 0.040094978690191851456 57.94116356039153004
0.050476587558421215363 73.77160573226242946 0.050476587558421215363 72.03880732932623232
0.063546258777947173257 92.13855943947346816 0.063546258777947173257 89.31525172539183188
0.079999999999998294697 114.87580513074352950 0.079999999999998294697 110.35451766299078713
0.100714032943542974863 142.91672887612722320 0.100714032943542974863 135.77670419492022802
0.126791455396897845276 177.33833545052337399 0.126791455396897845276 166.19705335844551541
0.159620985197506115583 219.35329895084768737 0.159620985197506115583 202.15660203483884061
0.200950914520774404082 270.28192651868459961 0.200950914520774404082 244.01399897146379203
0.252982212813464002465 331.49377130985527629 0.252982212813464002465 291.78783537137115900
0.318485736442795541734 404.30633370660649462 0.318485736442795541734 344.94242717526856268
0.400949786901819038576 489.82751640392439185 0.400949786901819038576 402.12198137698828759
0.504765875584169521062 588.73190825829942696 0.504765875584169521062 460.86566339325071340
0.635462587779443310865 700.97314764091584038 0.635462587779443310865 517.38625569207181343
0.799999999999997157829 825.46134699738263407 0.799999999999997157829 566.56429353775092750
1.007140329435330272645 959.77853042846481912 1.007140329435330272645 602.36472800192325394
1.267914553968893187630 1100.05636967674968218 1.267914553968893187630 618.84897746527462914
1.596209851975103788391 1241.16680820429633059 1.596209851975103788391 611.74426662160794876
2.009509145207687197399 1377.32762839781821640 2.009509145207687197399 580.14536623401215820
2.529822128134711078928 1503.07148505346071943 2.529822128134711078928 527.56252612418586523
3.184857364427983839050 1614.31421479275968522 3.184857364427983839050 461.54984932198590286
4.009497869018190385759 1709.12173756416564174 4.009497869018190385759 391.71764234581178243
5.009497869018190385759 1785.49422643422212786 5.009497869018190385759 328.66643796879685624
6.009497869018190385759 1838.04703425294997032 6.009497869018190385759 284.43936615937440138
7.009497869018204596614 1876.71695921893456216 7.009497869018204596614 253.67102129483757267
8.009497869018190385759 1906.71008148293344675 8.009497869018190385759 232.01583572866957184
9.009497869018204596614 1930.94507263942796271 9.009497869018204596614 216.83941320339101821
10.009497869018190385759 1951.15714599444891064 10.009497869018190385759 206.01222130160905976
11.009497869018190385759 1968.43414066935406481 11.009497869018190385759 197.22982630839427998
12.009497869018190385759 1983.48881173875497552 12.009497869018190385759 190.53326959757492887
13.009497869018190385759 1996.80829350503449859 13.009497869018190385759 185.31869046204454321
14.009497869018204596614 2008.73730283918075656 14.009497869018204596614 181.17712978478914465
15.009497869018190385759 2019.52751688378248218 15.009497869018190385759 177.82547136121132780
16.009497869018190385759 2029.36779704154992032 16.009497869018190385759 175.06550995621756783
17.009497869018190385759 2038.40337145250214235 17.009497869018190385759 172.80851944677564802
18.009497869018190385759 2046.74828309865006304 18.009497869018190385759 170.83246884516543673
19.009497869018204596614 2054.49343545817555423 19.009497869018204596614 169.19808235962031517
20.009497869018190385759 2061.71283543315348652 20.009497869018190385759 167.69901460587902875
21.009497869018204596614 2068.46762537486210931 21.009497869018204596614 166.37847122324041038
22.009497869018190385759 2074.80851111015999777 22.009497869018190385759 165.20277431028301862
23.009497869018190385759 2080.77841138024268730 23.009497869018190385759 164.16424724989403217
24.009497869018190385759 2086.41393512943068345 24.009497869018190385759 163.20199961472508221
25.009497869018190385759 2091.74633129054745950 25.009497869018190385759 162.32252117891593457
26.009497869018204596614 2096.80292571376867272 26.009497869018204596614 161.53074144038416193
27.009497869018190385759 2101.60724570377169584 27.009497869018190385759 160.77641097758200317
28.009497869018190385759 2106.18019657471404571 28.009497869018190385759 160.07295254757156044
29.009497869018190385759 2110.53998824830250669 29.009497869018190385759 159.41839276489179156
30.009497869018190385759 2114.70296699898926818 30.009497869018190385759 158.79529284723454907
31.009497869018190385759 2118.68356188697089237 31.009497869018190385759 158.20549924295787036
32.009497869018190385759 2122.49476448794894168 32.009497869018190385759 157.64418111512759424
33.009497869018190385759 2126.14823878665310986 33.009497869018190385759 157.11127776994337069
34.009497869018190385759 2129.65446090962132075 34.009497869018190385759 156.59624371354721006
35.009497869018190385759 2133.02300776186984876 35.009497869018190385759 156.09930542258692299
36.009497869018190385759 2136.26247964373305877 36.009497869018190385759 155.62069269494492119
37.009497869018190385759 2139.38076239377187449 37.009497869018190385759 155.15759996565691381
38.009497869018190385759 2142.38506702811673676 38.009497869018190385759 154.70830555639031445
39.009497869018190385759 2145.28195483583431269 39.009497869018190385759 154.26800962789374694
40.009497869018190385759 2148.07748731617994054 40.009497869018190385759 153.83351826402861207
41.009497869018190385759 2150.77724617018247955 41.009497869018190385759 153.42121145429678108
42.009497869018190385759 2153.38635507222397791 42.009497869018190385759 153.00863498617812297
43.009497869018190385759 2155.90956839859290994 43.009497869018190385759 152.61412275803894545
44.009497869018218807469 2158.35129659923586587 44.009497869018218807469 152.21676431783379257
46.009497869018190385759 2163.00633030901008169 46.009497869018190385759 151.44560285478331707
48.009497869018190385759 2167.38085661929380876 48.009497869018190385759 150.70356813419181208
50.009497869018190385759 2171.50045889574357716 50.009497869018190385759 149.96897089024128036
52.009497869018190385759 2175.38751112934824050 52.009497869018190385759 149.25518022051821276
54.009497869018190385759 2179.06176268135777718 54.009497869018190385759 148.56564720383767053
56.009497869018190385759 2182.54062202257728131 56.009497869018190385759 147.88994827568546953
58.009497869018218807469 2185.83965488768035357 58.009497869018218807469 147.19525419519843012
60.009497869018190385759 2188.97266011211922887 60.009497869018190385759 146.54580943428209139
62.009497869018190385759 2191.95211041222000858 62.009497869018190385759 145.90797360928846160
64.009497869018190385759 2194.78914611881600649 64.009497869018190385759 145.28109072654785905
66.009497869018190385759 2197.49386685787430906 66.009497869018190385759 144.65448940119182453
68.009497869018190385759 2200.07544411635399229 68.009497869018190385759 144.03238882718156333
70.009497869018190385759 2202.54209630590867164 70.009497869018190385759 143.44039255778679376
72.009497869018218807469 2204.90146461770427777 72.009497869018218807469 142.84935322408577463
74.009497869018190385759 2207.16042385503124024 74.009497869018190385759 142.27577254633723669
76.009497869018190385759 2209.32526412668084959 76.009497869018190385759 141.71417018213307415
78.009497869018190385759 2211.40184907290949923 78.009497869018190385759 141.16032060669920156
80.009497869018190385759 2213.39546610433444584 80.009497869018190385759 140.62202001931422046
82.009497869018218807469 2215.31100473687683916 82.009497869018218807469 140.09753737205187463
84.009497869018190385759 2217.15305415768671082 84.009497869018190385759 139.59090615042455852
86.009497869018190385759 2218.92576086351846243 86.009497869018190385759 139.08622373956956153
88.009497869018190385759 2220.63296718975789190 88.009497869018190385759 138.60191532945199810
91.009497869018218807469 2223.07889890158912749 91.009497869018218807469 137.89244412387495231
94.009497869018190385759 2225.39665712737860304 94.009497869018190385759 137.21094906922019163
97.009497869018190385759 2227.59620247461225517 97.009497869018190385759 136.55226769725709346
99.504748934509109403734 2229.34212738132055165 99.504748934509109403734 136.12976794477685871
nan nan nan nan

