Time Pressure difference Time.1 Pressure.1 difference.1
(hr) (psi) (hr) (psi)
0.000200000000006639311 0.02663265597610375 0.000200000000006639311 0.02123060098735589
0.000399999999999067768 0.05325022824267806 0.000399999999999067768 0.05557169963949296
0.000600000000005707079 0.07985501710907188 0.000600000000005707079 0.08130688850100111
0.000799999999998135536 0.10644812441000194 0.000799999999998135536 0.10750646374681863
0.001007140329434719206 0.13397887994706534 0.001007140329434719206 0.13500981038244134
0.001267914553963578328 0.16862179147820297 0.001267914553963578328 0.16987865782697173
0.001596209851982166583 0.21220986605324557 0.001596209851982166583 0.21372947657851957
0.002009509145210586212 0.26704622631417313 0.002009509145210586212 0.26886336011954803
0.002529822128138903281 0.33602344325558925 0.002529822128138903281 0.33816413853960853
0.003184857364445292660 0.42277248870872275 0.003184857364445292660 0.42524227658755648
0.004009497869020606231 0.53184829219367136 0.004009497869020606231 0.53461229211886219
0.005047658755842121536 0.66896032924195692 0.005047658755842121536 0.67191037981536350
0.006354625877804664924 0.84125828996662777 0.006354625877804664924 0.84415960125235734
0.008000000000009777068 1.05768462263935126 0.008000000000009777068 1.06009030740975763
0.010071403294347192059 1.32940749670778580 0.010071403294347192059 1.33052302488940088
0.012679145539692626699 1.67034925625591968 0.012679145539692626699 1.66881927356902793
0.015962098519750611558 2.09782634332231455 0.015962098519750611558 2.09140177850936970
0.020095091452091651263 2.63331630868134203 0.020095091452091651263 2.61833791787446968
0.025298221281346400247 3.30336486042874578 0.025298221281346400247 3.27396700292869403
0.031848573644282396344 4.14063934234125863 0.031848573644282396344 4.08753028891873615
0.040094978690191851456 5.18512223542074580 0.040094978690191851456 5.09372866464980500
0.050476587558421215363 6.48541588855054396 0.050476587558421215363 6.33308196301769044
0.063546258777947173257 8.10009313753612759 0.063546258777947173257 7.85189026157290915
0.079999999999998294697 10.09897187962580389 0.079999999999998294697 9.70149605828490458
0.100714032943542974863 12.56410803306613033 0.100714032943542974863 11.93641355559738138
0.126791455396897845276 15.59018333630974595 0.126791455396897845276 14.61072996557762771
0.159620985197506115583 19.28380650117342654 0.159620985197506115583 17.77200897009572245
0.200950914520774404082 23.76104848515908685 0.200950914520774404082 21.45178012935945588
0.252982212813464002465 29.14230956570155939 0.252982212813464002465 25.65167783484581676
0.318485736442795541734 35.54341395222913746 0.318485736442795541734 30.32460898244119107
0.400949786901819038576 43.06175968386148867 0.400949786901819038576 35.35138297819677433
0.504765875584169521062 51.75665127545489952 0.504765875584169521062 40.51566271589017276
0.635462587779443310865 61.62401297942117395 0.635462587779443310865 45.48450599490740842
0.799999999999997157829 72.56803050526440302 0.799999999999997157829 49.80784998134074470
1.007140329435330272645 84.37613454316174000 1.007140329435330272645 52.95514092324599886
1.267914553968893187630 96.70825227927468859 1.267914553968893187630 54.40430571123293646
1.596209851975103788391 109.11356555642164778 1.596209851975103788391 53.77971574695455104
2.009509145207687197399 121.08374755145653978 2.009509145207687197399 51.00179043815492008
2.529822128134711078928 132.13815253217237000 2.529822128134711078928 46.37912317575261056
3.184857364427983839050 141.91773316859425336 3.184857364427983839050 40.57581092940534973
4.009497869018190385759 150.25246044520136479 4.009497869018190385759 34.43671581062081799
5.009497869018190385759 156.96652540081075244 5.009497869018190385759 28.89375278846565465
6.009497869018190385759 161.58655246179779397 6.009497869018190385759 25.00565856346148408
7.009497869018204596614 164.98610630496128238 7.009497869018204596614 22.30074912482088934
8.009497869018190385759 167.62286430619195698 8.009497869018190385759 20.39699654757534830
9.009497869018204596614 169.75341297929037410 9.009497869018204596614 19.06280555634206664
10.009497869018190385759 171.53029854896254847 10.009497869018190385759 18.11096451003156815
11.009497869018190385759 173.04915522367946323 11.009497869018190385759 17.33888582930938682
12.009497869018190385759 174.37264279022019764 12.009497869018190385759 16.75017754703955219
13.009497869018190385759 175.54358624220083129 13.009497869018190385759 16.29175300765226808
14.009497869018204596614 176.59229035948843034 14.009497869018204596614 15.92765976130014494
15.009497869018190385759 177.54088060516767200 15.009497869018190385759 15.63300847131528215
16.009497869018190385759 178.40596017947689234 16.009497869018190385759 15.39037450164549981
17.009497869018190385759 179.20029639142876476 17.009497869018190385759 15.19195775356269351
18.009497869018190385759 179.93391499768353015 18.009497869018190385759 15.01823901935520311
19.009497869018204596614 180.61480751280663526 19.009497869018204596614 14.87455669095563238
20.009497869018190385759 181.24948003807941177 20.009497869018190385759 14.74277051480255274
21.009497869018204596614 181.84330772526260489 21.009497869018204596614 14.62667878885630124
22.009497869018190385759 182.40074822946465360 22.009497869018190385759 14.52332081848641820
23.009497869018190385759 182.92557462683450353 23.009497869018190385759 14.43202173625441986
24.009497869018190385759 183.42100528610379229 24.009497869018190385759 14.34742853755824932
25.009497869018190385759 183.88978736620197196 25.009497869018190385759 14.27011175199261039
26.009497869018204596614 184.33432313967196592 26.009497869018204596614 14.20050474201179647
27.009497869018190385759 184.75668094099088989 27.009497869018190385759 14.13418997605116445
28.009497869018190385759 185.15869859997488334 28.009497869018190385759 14.07234747670958797
29.009497869018190385759 185.54197698886173384 29.009497869018190385759 14.01480375955092761
30.009497869018190385759 185.90795314276826389 30.009497869018190385759 13.96002574481182812
31.009497869018190385759 186.25789555050292279 31.009497869018190385759 13.90817575762267033
32.009497869018190385759 186.59294632861087848 32.009497869018190385759 13.85882910902220644
33.009497869018190385759 186.91413088234313022 33.009497869018190385759 13.81198046329172513
34.009497869018190385759 187.22237018985680379 34.009497869018190385759 13.76670274404810712
35.009497869018190385759 187.51850617686770306 35.009497869018190385759 13.72301586132632245
36.009497869018190385759 187.80329491373478845 36.009497869018190385759 13.68094001713801333
37.009497869018190385759 188.07742966099090154 37.009497869018190385759 13.64022856840940001
38.009497869018190385759 188.34154435412014550 38.009497869018190385759 13.60073015880354497
39.009497869018190385759 188.59621580974368271 39.009497869018190385759 13.56202282443022078
40.009497869018190385759 188.84197690691689786 40.009497869018190385759 13.52382578145306447
41.009497869018190385759 189.07931834463144583 41.009497869018190385759 13.48757902894916683
42.009497869018190385759 189.30869055579992732 42.009497869018190385759 13.45130857021345960
43.009497869018190385759 189.53051150756860466 43.009497869018190385759 13.41662617653089562
44.009497869018218807469 189.74516893180097554 44.009497869018218807469 13.38169356640297103
46.009497869018190385759 190.15440266452836227 46.009497869018190385759 13.31389915206886343
48.009497869018190385759 190.53897640609176278 48.009497869018190385759 13.24866533047840100
50.009497869018190385759 190.90113924358186637 50.009497869018190385759 13.18408535298824269
52.009497869018190385759 191.24285812126137785 52.009497869018190385759 13.12133452488072116
54.009497869018190385759 191.56586924671276506 54.009497869018190385759 13.06071623770001366
56.009497869018190385759 191.87170303495184953 56.009497869018190385759 13.00131413412619530
58.009497869018218807469 192.16172790221364153 58.009497869018218807469 12.94024212705041066
60.009497869018190385759 192.43715693293356139 60.009497869018190385759 12.88314808213468865
62.009497869018190385759 192.69908662964570567 62.009497869018190385759 12.82707460301436875
64.009497869018190385759 192.94849636209369237 64.009497869018190385759 12.77196401991629493
66.009497869018190385759 193.18627400948344075 66.009497869018190385759 12.71687818911576606
68.009497869018190385759 193.41322585638278042 68.009497869018190385759 12.66218802876321448
70.009497869018190385759 193.63007440051944741 70.009497869018190385759 12.61014440068455400
72.009497869018218807469 193.83749139496302405 72.009497869018218807469 12.55818489882072697
74.009497869018190385759 194.03608121802471942 74.009497869018190385759 12.50776022385382369
76.009497869018190385759 194.22639684630158285 76.009497869018190385759 12.45838858744027000
78.009497869018190385759 194.40895376465138611 78.009497869018190385759 12.40969851487465370
80.009497869018190385759 194.58421680038105706 80.009497869018190385759 12.36237538631333699
82.009497869018218807469 194.75261580104412928 82.009497869018218807469 12.31626702171884524
84.009497869018190385759 194.91455421166475048 84.009497869018190385759 12.27172801322413598
86.009497869018190385759 195.07039655943017920 86.009497869018190385759 12.22736032875336853
88.009497869018190385759 195.22048063206665347 88.009497869018190385759 12.18478376522654827
91.009497869018218807469 195.43550759574409881 91.009497869018218807469 12.12241267023076752
94.009497869018190385759 195.63926656064865028 94.009497869018190385759 12.06250101707430211
97.009497869018190385759 195.83263318458128310 97.009497869018190385759 12.00459496239622759
99.504748934509109403734 195.98612108846774049 99.504748934509109403734 11.96745212701335070
nan nan nan nan

