Time Pressure difference Time.1 Pressure.1 difference.1
(hr) (psi) (hr) (psi)
0.000200000000006639311 0.06491709894175290 0.000200000000006639311 0.05174958990667999
0.000399999999999067768 0.12979743134152777 0.000399999999999067768 0.13545601787126410
0.000600000000005707079 0.19464660420336269 0.000600000000005707079 0.19818554072119024
0.000799999999998135536 0.25946730324937972 0.000799999999998135536 0.26204700538287046
0.001007140329434719206 0.32657351987097172 0.001007140329434719206 0.32908641280720069
0.001267914553963578328 0.41101561672811976 0.001267914553963578328 0.41407922845324363
0.001596209851982166583 0.51726154850478612 0.001596209851982166583 0.52096559916014140
0.002009509145210586212 0.65092517664079708 0.002009509145210586212 0.65535444029139833
0.002529822128138903281 0.81905714293549881 0.002529822128138903281 0.82427508769029578
0.003184857364445292660 1.03050794122751155 0.003184857364445292660 1.03652804918216890
0.004009497869020606231 1.29638021222207400 0.004009497869020606231 1.30311746203972656
0.005047658755842121536 1.63059080252726996 0.005047658755842121536 1.63778155079994869
0.006354625877804664924 2.05056708179365543 0.006354625877804664924 2.05763902805262111
0.008000000000009777068 2.57810626768341855 0.008000000000009777068 2.58397012431128470
0.010071403294347192059 3.24043077322522777 0.010071403294347192059 3.24314987316791470
0.012679145539692626699 4.07147631212380468 0.012679145539692626699 4.06774697932450557
0.015962098519750611558 5.11345171184814262 0.015962098519750611558 5.09779183511658829
0.020095091452091651263 6.41870850241077129 0.020095091452091651263 6.38219867481901915
0.025298221281346400247 8.05195184729506863 0.025298221281346400247 7.98029456963869155
0.031848573644282396344 10.09280839695681742 0.031848573644282396344 9.96335507923942032
0.040094978690191851456 12.63873544883806765 0.040094978690191851456 12.41596362008390031
0.050476587558421215363 15.80820122834194841 0.050476587558421215363 15.43688728485562045
0.063546258777947173257 19.74397702274431055 0.063546258777947173257 19.13898251258396854
0.079999999999998294697 24.61624395658789766 0.079999999999998294697 23.64739664206945591
0.100714032943542974863 30.62501333059869069 0.100714032943542974863 29.09500804176861521
0.126791455396897845276 38.00107188225500465 0.126791455396897845276 35.61365429109546454
0.159620985197506115583 47.00427834661022786 0.159620985197506115583 43.31927186460832502
0.200950914520774404082 57.91755568257527642 0.200950914520774404082 52.28871406531366972
0.252982212813464002465 71.03437956639756123 0.252982212813464002465 62.52596472243666881
0.318485736442795541734 86.63707150855853456 0.318485736442795541734 73.91623439470041035
0.400949786901819038576 104.96303922941237374 0.400949786901819038576 86.16899600935462900
0.504765875584169521062 126.15683748392130781 0.504765875584169521062 98.75692786998230588
0.635462587779443310865 150.20853163733909241 0.635462587779443310865 110.86848336258680092
0.799999999999997157829 176.88457435658199302 0.799999999999997157829 121.40663432951807010
1.007140329435330272645 205.66682794895675102 1.007140329435330272645 129.07815600041212178
1.267914553968893187630 235.72636493073207475 1.267914553968893187630 132.61049517113028173
1.596209851975103788391 265.96431604377772828 1.596209851975103788391 131.08805713320171549
2.009509145207687197399 295.14163465667530772 2.009509145207687197399 124.31686419300261548
2.529822128134711078928 322.08674679717012168 2.529822128134711078928 113.04911274089697315
3.184857364427983839050 345.92447459844851210 3.184857364427983839050 98.90353914042555061
4.009497869018190385759 366.24037233517833556 4.009497869018190385759 83.93949478838824518
5.009497869018190385759 382.60590566447615402 5.009497869018190385759 70.42852242188503453
6.009497869018190385759 393.86722162563216898 6.009497869018190385759 60.95129274843737477
7.009497869018204596614 402.15363411834306362 7.009497869018204596614 54.35807599175091553
8.009497869018190385759 408.58073174634290581 8.009497869018190385759 49.71767908471490927
9.009497869018204596614 413.77394413702023712 9.009497869018204596614 46.46558854358379165
10.009497869018190385759 418.10510271309624386 10.009497869018190385759 44.14547599320194138
11.009497869018190385759 421.80731585771872005 11.009497869018190385759 42.26353420894162838
12.009497869018190385759 425.03331680116178859 12.009497869018190385759 40.82855777090890825
13.009497869018190385759 427.88749146536451917 13.009497869018190385759 39.71114795615240212
14.009497869018204596614 430.44370775125304363 14.009497869018204596614 38.82367066816910040
15.009497869018190385759 432.75589647509622182 15.009497869018190385759 38.10545814883099780
16.009497869018190385759 434.86452793747497481 16.009497869018190385759 37.51403784776091044
17.009497869018190385759 436.80072245410764253 17.009497869018190385759 37.03039702430906743
18.009497869018190385759 438.58891780685360118 18.009497869018190385759 36.60695760967831092
19.009497869018204596614 440.24859331246619831 19.009497869018204596614 36.25673193420435325
20.009497869018190385759 441.79560759281855553 20.009497869018190385759 35.93550312983121842
21.009497869018204596614 443.24306258032760297 21.009497869018204596614 35.65252954783723283
22.009497869018190385759 444.60182380932008073 22.009497869018190385759 35.40059449506064482
23.009497869018190385759 445.88108815290905795 23.009497869018190385759 35.17805298212014975
24.009497869018190385759 447.08870038487799548 24.009497869018190385759 34.97185706029822683
25.009497869018190385759 448.23135670511737771 25.009497869018190385759 34.78339739548199105
26.009497869018204596614 449.31491265295045423 26.009497869018204596614 34.61373030865375711
27.009497869018190385759 450.34440979366530655 27.009497869018190385759 34.45208806662471090
28.009497869018190385759 451.32432783743877280 28.009497869018190385759 34.30134697447962111
29.009497869018190385759 452.25856891035044782 29.009497869018190385759 34.16108416390538594
30.009497869018190385759 453.15063578549762724 30.009497869018190385759 34.02756275297883093
31.009497869018190385759 454.00362040435089739 31.009497869018190385759 33.90117840920525794
32.009497869018190385759 454.82030667598905893 32.009497869018190385759 33.78089595324162531
33.009497869018190385759 455.60319402571138880 33.009497869018190385759 33.66670237927357334
34.009497869018190385759 456.35452733777594858 34.009497869018190385759 33.55633793861726843
35.009497869018190385759 457.07635880611496759 35.009497869018190385759 33.44985116198291308
36.009497869018190385759 457.77053135222848823 36.009497869018190385759 33.34729129177391371
37.009497869018190385759 458.43873479866533671 37.009497869018190385759 33.24805713549791619
38.009497869018190385759 459.08251436316788840 38.009497869018190385759 33.15177976208364186
39.009497869018190385759 459.70327603625025858 39.009497869018190385759 33.05743063454865904
40.009497869018190385759 460.30231871060993853 40.009497869018190385759 32.96432534229184341
41.009497869018190385759 460.88083846503917584 41.009497869018190385759 32.87597388306359392
42.009497869018190385759 461.43993322976234595 42.009497869018190385759 32.78756463989530801
43.009497869018190385759 461.98062179969844010 43.009497869018190385759 32.70302630529405263
44.009497869018218807469 462.50384927126486900 44.009497869018218807469 32.61787806810723822
46.009497869018190385759 463.50135649478789901 46.009497869018190385759 32.45262918316785061
48.009497869018190385759 464.43875498984868955 48.009497869018190385759 32.29362174304110056
50.009497869018190385759 465.32152690623081526 50.009497869018190385759 32.13620804790884478
52.009497869018190385759 466.15446667057460672 52.009497869018190385759 31.98325290439676039
54.009497869018190385759 466.94180628886238082 54.009497869018190385759 31.83549582939378197
56.009497869018190385759 467.68727614769517231 56.009497869018190385759 31.69070320193259960
58.009497869018218807469 468.39421176164574945 58.009497869018218807469 31.54184018468537687
60.009497869018190385759 469.06557002402558965 60.009497869018190385759 31.40267345020330580
62.009497869018190385759 469.70402365976138981 62.009497869018190385759 31.26599434484752393
64.009497869018190385759 470.31195988260333252 64.009497869018190385759 31.13166229854596878
66.009497869018190385759 470.89154289811585841 66.009497869018190385759 30.99739058596967567
68.009497869018190385759 471.44473802493308767 68.009497869018190385759 30.86408332011033551
70.009497869018190385759 471.97330635126610332 70.009497869018190385759 30.73722697666859460
72.009497869018218807469 472.47888527522235336 72.009497869018218807469 30.61057569087552110
74.009497869018190385759 472.96294796893522516 74.009497869018190385759 30.48766554564369358
76.009497869018190385759 473.42684231286017393 76.009497869018190385759 30.36732218188565824
78.009497869018190385759 473.87182480133776608 78.009497869018190385759 30.24864013000696872
80.009497869018190385759 474.29902845092885855 80.009497869018190385759 30.13329000413875747
82.009497869018218807469 474.70950101504507757 82.009497869018218807469 30.02090086543968894
84.009497869018190385759 475.10422589093286660 84.009497869018190385759 29.91233703223383245
86.009497869018190385759 475.48409161361109909 86.009497869018190385759 29.80419080133633614
88.009497869018190385759 475.84992154066242165 88.009497869018190385759 29.70041042773971185
91.009497869018218807469 476.37404976462619288 91.009497869018218807469 29.54838088368749283
94.009497869018190385759 476.87071224158108862 94.009497869018190385759 29.40234622911861351
97.009497869018190385759 477.34204338741687934 97.009497869018190385759 29.26120022084080574
99.504748934509109403734 477.71617015314006949 99.504748934509109403734 29.17066455959504623
nan nan nan nan

