Time Pressure difference Time.1 Pressure.1 difference.1
(hr) (psi) (hr) (psi)
0.000200000000006639311 0.56178258699593853 0.000200000000006639311 0.44783298957703838
0.000399999999999067768 1.12324700199399041 0.000399999999999067768 1.17221553927055466
0.000600000000005707079 1.68444176714448490 0.000600000000005707079 1.71506717931799213
0.000799999999998135536 2.24539012427347817 0.000799999999998135536 2.26771446965945556
0.001007140329434719206 2.82611699888340961 0.001007140329434719206 2.84786318775462188
0.001267914553963578328 3.55686591399334384 0.001267914553963578328 3.58337793853768494
0.001596209851982166583 4.47630186206064895 0.001596209851982166583 4.50835614657814698
0.002009509145210586212 5.63300633631458947 0.002009509145210586212 5.67133650252171595
0.002529822128138903281 7.08799450617258575 0.002529822128138903281 7.13314979731986742
0.003184857364445292660 8.91785718369962055 0.003184857364445292660 8.96995427176877058
0.004009497869020606231 11.21867491346025503 0.004009497869020606231 11.27697803688224809
0.005047658755842121536 14.11088194494752912 0.005047658755842121536 14.17310957423032391
0.006354625877804664924 17.74529205398355458 0.006354625877804664924 17.80649158891691286
0.008000000000009777068 22.31053500879881568 0.008000000000009777068 22.36127992192457725
0.010071403294347192059 28.04218938367985459 0.010071403294347192059 28.06572005626080113
0.012679145539692626699 35.23392962414830976 0.012679145539692626699 35.20165655184668196
0.015962098519750611558 44.25102442945507875 0.015962098519750611558 44.11550626543201759
0.020095091452091651263 55.54651588624705738 0.020095091452091651263 55.23056545516458726
0.025298221281346400247 69.68035252466884799 0.025298221281346400247 69.06024146802714370
0.031848573644282396344 87.34161112751091594 0.031848573644282396344 86.22134203187960111
0.040094978690191851456 109.37367215340636051 0.040094978690191851456 107.44583901995682140
0.050476587558421215363 136.80174139911301268 0.050476587558421215363 133.58844765740440153
0.063546258777947173257 170.86133961990270791 0.063546258777947173257 165.62581020505356832
0.079999999999998294697 213.02518808585679722 0.079999999999998294697 204.64093247944720133
0.100714032943542974863 265.02415382248869946 0.100714032943542974863 251.78372343838225333
0.126791455396897845276 328.85542975028369028 0.126791455396897845276 308.19508521140306812
0.159620985197506115583 406.76779338412694642 0.159620985197506115583 374.87831421295669543
0.200950914520774404082 501.20961648382450448 0.200950914520774404082 452.49848710367598414
0.252982212813464002465 614.72059240151736503 0.252982212813464002465 541.09007932877898384
0.318485736442795541734 749.74388805483340548 0.318485736442795541734 639.65972072336887777
0.400949786901819038576 908.33399333145325727 0.400949786901819038576 745.69323469633820878
0.504765875584169521062 1091.74186284162669835 0.504765875584169521062 854.62726041330847693
0.635462587779443310865 1299.88152378466543269 0.635462587779443310865 959.43879833007815705
0.799999999999997157829 1530.73189347042102781 0.799999999999997157829 1050.63433554390621794
1.007140329435330272645 1779.80908801981809120 1.007140329435330272645 1117.02250384972035135
1.267914553968893187630 2039.93969651595034520 1.267914553968893187630 1147.59082359631975123
1.596209851975103788391 2301.61427345576930747 1.596209851975103788391 1134.41587903732261111
2.009509145207687197399 2554.11029991353643709 2.009509145207687197399 1075.81901705483051046
2.529822128134711078928 2787.28915497551133740 2.529822128134711078928 978.30962948853164107
3.184857364427983839050 2993.57718402503542166 3.184857364427983839050 855.89601179214412241
4.009497869018190385759 3169.38783751596611182 4.009497869018190385759 726.39947413028278334
5.009497869018190385759 3311.01264517335130222 5.009497869018190385759 609.47759788169742023
6.009497869018190385759 3408.46634099104767301 6.009497869018190385759 527.46311032301571231
7.009497869018204596614 3480.17567987027723575 7.009497869018204596614 470.40642685169058268
8.009497869018190385759 3535.79479395873659087 8.009497869018190385759 430.24914592541750835
9.009497869018204596614 3580.73605503190583477 9.009497869018204596614 402.10605470409046802
10.009497869018190385759 3618.21723501717906402 10.009497869018190385759 382.02815763347831535
11.009497869018190385759 3650.25561799948900443 11.009497869018190385759 365.74212296199488037
12.009497869018190385759 3678.17293385620769186 12.009497869018190385759 353.32405763286556066
13.009497869018190385759 3702.87252229642353996 13.009497869018190385759 343.65416500516505494
14.009497869018204596614 3724.99362477045906417 14.009497869018204596614 335.97407308992490016
15.009497869018190385759 3745.00295026525600406 15.009497869018190385759 329.75877244180674097
16.009497869018190385759 3763.25072253584085047 16.009497869018190385759 324.64071214408477317
17.009497869018190385759 3780.00625200670083359 17.009497869018190385759 320.45535886421305349
18.009497869018190385759 3795.48101948238672776 18.009497869018190385759 316.79097931452383818
19.009497869018204596614 3809.84359597326465519 19.009497869018204596614 313.76018019984542207
20.009497869018190385759 3823.23121955323767907 20.009497869018190385759 310.98031554661633891
21.009497869018204596614 3835.75727232975805236 21.009497869018204596614 308.53150570243758466
22.009497869018190385759 3847.51578296526986378 22.009497869018190385759 306.35129851494787090
23.009497869018190385759 3858.58633978479019788 23.009497869018190385759 304.42545849911664391
24.009497869018190385759 3869.03683025375221405 24.009497869018190385759 302.64107071411928018
25.009497869018190385759 3878.92520225582302373 25.009497869018190385759 301.01016976859415308
26.009497869018204596614 3888.30212872745551067 26.009497869018204596614 299.54189690181129890
27.009497869018190385759 3897.21123859902627373 27.009497869018190385759 298.14306980732931152
28.009497869018190385759 3905.69129859322038101 28.009497869018190385759 296.83857958684285450
29.009497869018190385759 3913.77607710880283776 29.009497869018190385759 295.62476680302734167
30.009497869018190385759 3921.49588660526842432 30.009497869018190385759 294.46929305462452930
31.009497869018190385759 3928.87748426842108529 31.009497869018190385759 293.37558238735323357
32.009497869018190385759 3935.94496161913548349 32.009497869018190385759 292.33467651843716339
33.009497869018190385759 3942.71994829942468641 33.009497869018190385759 291.34646289755983162
34.009497869018190385759 3949.22187119229192831 34.009497869018190385759 290.39138600726482764
35.009497869018190385759 3955.46848966830293648 35.009497869018190385759 289.46986582485209283
36.009497869018190385759 3961.47575208659327473 36.009497869018190385759 288.58232848650499136
37.009497869018190385759 3967.25828191152686486 37.009497869018190385759 287.72357136488579954
38.009497869018190385759 3972.82945121972215929 38.009497869018190385759 286.89040178726230579
39.009497869018190385759 3978.20142723678054608 39.009497869018190385759 286.07391895282495398
40.009497869018190385759 3983.38545038027814371 40.009497869018190385759 285.26820007752553465
41.009497869018190385759 3988.39187133206951330 41.009497869018190385759 284.50362014189647653
42.009497869018190385759 3993.23019141140457577 42.009497869018190385759 283.73854015294017472
43.009497869018190385759 3997.90922711277562485 43.009497869018190385759 283.00695841119858187
44.009497869018218807469 4002.43715715517691933 44.009497869018218807469 282.27009866631266277
46.009497869018190385759 4011.06943120489540888 46.009497869018190385759 280.84006023895256021
48.009497869018190385759 4019.18153356599850667 48.009497869018190385759 279.46403431477875756
50.009497869018190385759 4026.82090591930500523 50.009497869018190385759 278.10180041459574340
52.009497869018190385759 4034.02903849535732661 52.009497869018190385759 276.77815013420274681
54.009497869018190385759 4040.84255442284757009 54.009497869018190385759 275.49948313898465813
56.009497869018190385759 4047.29373589351553164 56.009497869018190385759 274.24647001672440183
58.009497869018218807469 4053.41144793731928075 58.009497869018218807469 272.95823236746957718
60.009497869018190385759 4059.22127905406796344 60.009497869018190385759 271.75390485752859604
62.009497869018190385759 4064.74635859408863325 62.009497869018190385759 270.57110490733435881
64.009497869018190385759 4070.00734513791348945 64.009497869018190385759 269.40861604510934058
66.009497869018190385759 4075.02296738754102989 66.009497869018190385759 268.24664930166068189
68.009497869018190385759 4079.81023290807434023 68.009497869018190385759 267.09302873172401860
70.009497869018190385759 4084.38438188595682732 70.009497869018190385759 265.99523345193978230
72.009497869018218807469 4088.75958411250076097 72.009497869018218807469 264.89921270949969312
74.009497869018190385759 4092.94858819270848471 74.009497869018190385759 263.83556722191661947
76.009497869018190385759 4096.96305847667463240 76.009497869018190385759 262.79413426631822404
78.009497869018190385759 4100.81386847311478050 78.009497869018190385759 261.76707804813725033
80.009497869018190385759 4104.51082313303777482 80.009497869018190385759 260.76885580504693962
82.009497869018218807469 4108.06298955327474687 82.009497869018218807469 259.79625748938190100
84.009497869018190385759 4111.47887790230379323 84.009497869018190385759 258.85676277894663144
86.009497869018190385759 4114.76617742548114620 86.009497869018190385759 257.92088193464132928
88.009497869018190385759 4117.93201333265551511 88.009497869018190385759 257.02278254774751076
91.009497869018218807469 4122.46773834772648115 91.009497869018218807469 255.70714226268023594
94.009497869018190385759 4126.76577901368273160 94.009497869018190385759 254.44338082891110275
97.009497869018190385759 4130.84460623726135964 97.009497869018190385759 253.22192498804542993
99.504748934509109403734 4134.08224170986613899 99.504748934509109403734 252.43844330418787081
nan nan nan nan

