Time Pressure difference Time.1 Pressure.1 difference.1
(hr) (psi) (hr) (psi)
0.000200000000006639311 0.43444520061019243 0.000200000000006639311 0.34632417860624298
0.000399999999999067768 0.86864434820868586 0.000399999999999067768 0.90651335036922887
0.000600000000005707079 1.30263496659173517 0.000600000000005707079 1.32631861867258083
0.000799999999998135536 1.73643502943815675 0.000799999999998135536 1.75369918986997897
0.001007140329434719206 2.18553047913650333 0.001007140329434719206 2.20234753186357413
0.001267914553963578328 2.75064297348818565 0.001267914553963578328 2.77114560580247682
0.001596209851982166583 3.46167343999356802 0.001596209851982166583 3.48646208668710011
0.002009509145210586212 4.35619156674994912 0.002009509145210586212 4.38583356195012808
0.002529822128138903281 5.48138241810679983 0.002529822128138903281 5.51630250992736393
0.003184857364445292660 6.89647622206103961 0.003184857364445292660 6.93676463683451505
0.004009497869020606231 8.67577526640926422 0.004009497869020606231 8.72086301518893947
0.005047658755842121536 10.91241537075942247 0.005047658755842121536 10.96053807073811903
0.006354625877804664924 13.72302585508061590 0.006354625877804664924 13.77035349542908094
0.008000000000009777068 17.25348040680441741 0.008000000000009777068 17.29272313962167118
0.010071403294347192059 21.68595979004575725 0.010071403294347192059 21.70415684350835051
0.012679145539692626699 27.24757224267468914 0.012679145539692626699 27.22261440009476985
0.015962098519750611558 34.22079222544525834 0.015962098519750611558 34.11599151193409085
0.020095091452091651263 42.95597228536439616 0.020095091452091651263 42.71163728532728499
0.025298221281346400247 53.88613928574391565 0.025298221281346400247 53.40658673527432398
0.031848573644282396344 67.54417927194178617 0.031848573644282396344 66.67783783798688546
0.040094978690191851456 84.58230646530091690 0.040094978690191851456 83.09144884209995041
0.050476587558421215363 105.79334668198073643 0.050476587558421215363 103.30839952172608776
0.063546258777947173257 132.13276930605809412 0.063546258777947173257 128.08395989190807995
0.079999999999998294697 164.73947878639592091 0.079999999999998294697 158.25565445077251070
0.100714032943542974863 204.95201228939126281 0.100714032943542974863 194.71274612568228690
0.126791455396897845276 254.31486567355275952 0.126791455396897845276 238.33753256348504124
0.159620985197506115583 314.56709355039146203 0.159620985197506115583 289.90589632468652326
0.200950914520774404082 387.60210341415762514 0.200950914520774404082 349.93216336017610502
0.252982212813464002465 475.38392479050673955 0.252982212813464002465 418.44299468092242478
0.318485736442795541734 579.80194009573790481 0.318485736442795541734 494.67018402607192229
0.400949786901819038576 702.44495484299056898 0.400949786901819038576 576.66943483183479202
0.504765875584169521062 844.28037393085799067 0.504765875584169521062 660.91174805295850092
0.635462587779443310865 1005.24171172680803465 0.635462587779443310865 741.96600404192702172
0.799999999999997157829 1183.76599761712554937 0.799999999999997157829 812.49055282062090555
1.007140329435330272645 1376.38569473532584198 1.007140329435330272645 863.83073631045044749
1.267914553968893187630 1577.55336530566842157 1.267914553968893187630 887.47023691448725913
1.596209851975103788391 1779.91503813912822807 1.596209851975103788391 877.28161312219617685
2.009509145207687197399 1975.17863193313473857 2.009509145207687197399 831.96670652240220534
2.529822128134711078928 2155.50361318106160979 2.529822128134711078928 756.55944680446441453
3.184857364427983839050 2315.03302231269344702 3.184857364427983839050 661.89291578592485621
4.009497869018190385759 2450.99326101234737507 4.009497869018190385759 561.74892666075197667
5.009497869018190385759 2560.51644560072509194 5.009497869018190385759 471.32934236184598831
6.009497869018190385759 2635.88063703307670949 6.009497869018190385759 407.90480531646551299
7.009497869018204596614 2691.33585909968087435 7.009497869018204596614 363.78097009864075062
8.009497869018190385759 2734.34797399475655766 8.009497869018190385759 332.72600618232280567
9.009497869018204596614 2769.10254922467402139 9.009497869018204596614 310.96201563783000665
10.009497869018190385759 2798.08799507995172462 10.009497869018190385759 295.43510856988990554
11.009497869018190385759 2822.86434458627172717 11.009497869018190385759 282.84057509060937718
12.009497869018190385759 2844.45373551546708768 12.009497869018190385759 273.23727123608267675
13.009497869018190385759 2863.55475057590092547 13.009497869018190385759 265.75922093732765461
14.009497869018204596614 2880.66173648915491867 14.009497869018204596614 259.81994985620860916
15.009497869018190385759 2896.13561487179777032 15.009497869018190385759 255.01345068833055052
16.009497869018190385759 2910.24722542771678491 16.009497869018190385759 251.05548405809224732
17.009497869018190385759 2923.20483488518220838 17.009497869018190385759 247.81881085499142614
18.009497869018190385759 2935.17198839971251800 18.009497869018190385759 244.98502400323172878
19.009497869018204596614 2946.27904755265853964 19.009497869018204596614 242.64120602121377601
20.009497869018190385759 2956.63214312117042937 20.009497869018190385759 240.49144402271664944
21.009497869018204596614 2966.31895726834636662 21.009497869018204596614 238.59769774321841851
22.009497869018190385759 2975.41220549314175514 22.009497869018190385759 236.91167085155970540
23.009497869018190385759 2983.97343610023790461 23.009497869018190385759 235.42235457265022092
24.009497869018190385759 2992.05514872956791805 24.009497869018190385759 234.04242801891891190
25.009497869018190385759 2999.70215641117010819 25.009497869018190385759 232.78119795437947914
26.009497869018204596614 3006.95364621589897069 26.009497869018204596614 231.64573360406743063
27.009497869018190385759 3013.84335784991390028 27.009497869018190385759 230.56397398433463763
28.009497869018190385759 3020.40127091209024002 28.009497869018190385759 229.55516821382514081
29.009497869018190385759 3026.65349963080734597 29.009497869018190385759 228.61648632767452227
30.009497869018190385759 3032.62348564140756935 30.009497869018190385759 227.72291996224294053
31.009497869018190385759 3038.33192116757891199 31.009497869018190385759 226.87711704621978015
32.009497869018190385759 3043.79743698546508313 32.009497869018190385759 226.07214984092476584
33.009497869018190385759 3049.03676001822213948 33.009497869018190385759 225.30793130744626751
34.009497869018190385759 3054.06491372203936407 34.009497869018190385759 224.56933851228475874
35.009497869018190385759 3058.89563201015425875 35.009497869018190385759 223.85669623788564309
36.009497869018190385759 3063.54124828029853234 36.009497869018190385759 223.17033402956386112
37.009497869018190385759 3068.01307134491389661 37.009497869018190385759 222.50622852217836112
38.009497869018190385759 3072.32144227658500313 38.009497869018190385759 221.86191071548282139
39.009497869018190385759 3076.47577039644374963 39.009497869018190385759 221.23049732351796592
40.009497869018190385759 3080.48474829408223741 40.009497869018190385759 220.60740805995311575
41.009497869018190385759 3084.35638049680073891 41.009497869018190385759 220.01613290973330095
42.009497869018190385759 3088.09801469148624165 42.009497869018190385759 219.42447105160707110
43.009497869018190385759 3091.71646896721267694 43.009497869018190385759 218.85871450466024157
44.009497869018218807469 3095.21806820000347216 44.009497869018218807469 218.28887630194847702
46.009497869018190385759 3101.89369346511921322 46.009497869018190385759 217.18297991812332270
48.009497869018190385759 3108.16705262437199053 48.009497869018190385759 216.11885320342889827
50.009497869018190385759 3114.07483391092910097 50.009497869018190385759 215.06539232062070255
52.009497869018190385759 3119.64912310307636290 52.009497869018190385759 214.04176943711678405
54.009497869018190385759 3124.91824208700199961 54.009497869018190385759 213.05293362748147956
56.009497869018190385759 3129.90715575765170797 56.009497869018190385759 212.08393681293355826
58.009497869018218807469 3134.63818640485987999 58.009497869018218807469 211.08769969750980522
60.009497869018190385759 3139.13112246847867937 60.009497869018190385759 210.15635308982211882
62.009497869018190385759 3143.40385064609563415 62.009497869018190385759 209.24165446167191362
64.009497869018190385759 3147.47234690665345624 64.009497869018190385759 208.34266307488456960
66.009497869018190385759 3151.35109477969854197 66.009497869018190385759 207.44407545995090913
68.009497869018190385759 3155.05324678224451418 68.009497869018190385759 206.55194221919992970
70.009497869018190385759 3158.59058865847327979 70.009497869018190385759 205.70298053616679113
72.009497869018218807469 3161.97407838033404914 72.009497869018218807469 204.85539116201309184
74.009497869018190385759 3165.21357486902797973 74.009497869018190385759 204.03283865161549215
76.009497869018190385759 3168.31809855529490960 76.009497869018190385759 203.22746383261940650
78.009497869018190385759 3171.29605828587591532 78.009497869018190385759 202.43320702389277699
80.009497869018190385759 3174.15503655621614598 80.009497869018190385759 201.66124848923629997
82.009497869018218807469 3176.90204525453236784 82.009497869018218807469 200.90910579178867579
84.009497869018190385759 3179.54366557778121205 84.009497869018190385759 200.18256321571871581
86.009497869018190385759 3182.08584387570499530 86.009497869018190385759 199.45881536278932344
88.009497869018190385759 3184.53409031058754408 88.009497869018190385759 198.76428517025806286
91.009497869018218807469 3188.04171765557566687 91.009497869018218807469 197.74685668313938436
94.009497869018190385759 3191.36553577058111841 94.009497869018190385759 196.76954784102454710
97.009497869018190385759 3194.51982882348238491 97.009497869018190385759 195.82495532408847794
99.504748934509109403734 3197.02360025562984447 99.504748934509109403734 195.21906282190531101
nan nan nan nan

