Time Pressure difference Time.1 Pressure.1 difference.1
(hr) (psi) (hr) (psi)
0.000200000000006639311 0.26382974826327782 0.000200000000006639311 0.21031564103099432
0.000399999999999067768 0.52751007352902957 0.000399999999999067768 0.55050714955372715
0.000600000000005707079 0.79106376323674332 0.000600000000005707079 0.80544636421304228
0.000799999999998135536 1.05450173243658152 0.000799999999998135536 1.06498590649192204
0.001007140329434719206 1.32722827947561584 0.001007140329434719206 1.33744093410105935
0.001267914553963578328 1.67040962183094810 0.001267914553963578328 1.68286045409843865
0.001596209851982166583 2.10220398558996413 0.001596209851982166583 2.11725762735595913
0.002009509145210586212 2.64542667942477783 0.002009509145210586212 2.66342766118427265
0.002529822128138903281 3.32873223475068114 0.002529822128138903281 3.34993849740799732
0.003184857364445292660 4.18808996627078489 0.003184857364445292660 4.21255630244548129
0.004009497869020606231 5.26862214454355726 0.004009497869020606231 5.29600301880247759
0.005047658755842121536 6.62688826155313571 0.005047658755842121536 6.65611220004594450
0.006354625877804664924 8.33371493498190752 0.006354625877804664924 8.36245604990616620
0.008000000000009777068 10.47768829302107463 0.008000000000009777068 10.50151960777791338
0.010071403294347192059 13.16944301426150332 0.010071403294347192059 13.18049371531062697
0.012679145539692626699 16.54689731978520584 0.012679145539692626699 16.53174092879318380
0.015962098519750611558 20.78159221353667974 0.015962098519750611558 20.71794886835844451
0.020095091452091651263 26.08628968287454697 0.020095091452091651263 25.93790999894396165
0.025298221281346400247 32.72395814862225905 0.025298221281346400247 32.43273562276237953
0.031848573644282396344 41.01820848506809369 0.031848573644282396344 40.49209692460123478
0.040094978690191851456 51.36511714463676981 0.040094978690191851456 50.45974958418712930
0.050476587558421215363 64.24615114595383147 0.050476587558421215363 62.73709319614400215
0.063546258777947173257 80.24154764371726856 0.063546258777947173257 77.78278790370663387
0.079999999999998294697 100.04294018254313414 0.079999999999998294697 96.10544532738484236
0.100714032943542974863 124.46319520256136570 0.100714032943542974863 118.24509678513655331
0.126791455396897845276 154.44025367531841653 0.126791455396897845276 144.73754372150335712
0.159620985197506115583 191.03020815224925855 0.159620985197506115583 176.05396386001075371
0.200950914520774404082 235.38288655610719502 0.200950914520774404082 212.50669690646708432
0.252982212813464002465 288.69100413523108273 0.252982212813464002465 254.11193355144135353
0.318485736442795541734 352.10194446426987724 0.318485736442795541734 300.40315773230804552
0.400949786901819038576 426.58055686825281327 0.400949786901819038576 350.19963762776177418
0.504765875584169521062 512.71432669747514410 0.504765875584169521062 401.35828377928709187
0.635462587779443310865 610.46287857739105220 0.635462587779443310865 450.58088751205150402
0.799999999999997157829 718.87705219277552260 0.799999999999997157829 493.40901387765671871
1.007140329435330272645 835.85108281819600506 1.007140329435330272645 524.58686477090566314
1.267914553968893187630 958.01612414156488740 1.267914553968893187630 538.94265345190126482
1.596209851975103788391 1080.90625879330195858 1.596209851975103788391 532.75530911826854208
2.009509145207687197399 1199.48587418161628193 2.009509145207687197399 505.23648652797220393
2.529822128134711078928 1308.99357352183255898 2.529822128134711078928 459.44318895979927220
3.184857364427983839050 1405.87254420138697242 3.184857364427983839050 401.95412701942171907
4.009497869018190385759 1488.43843628527611145 4.009497869018190385759 341.13871599896242515
5.009497869018190385759 1554.94964225178136985 5.009497869018190385759 286.22873856073789511
6.009497869018190385759 1600.71678532468445155 6.009497869018190385759 247.71230514429032610
7.009497869018204596614 1634.39361558352266002 7.009497869018204596614 220.91679601775692277
8.009497869018190385759 1660.51399953321401881 8.009497869018190385759 202.05774704941828190
9.009497869018204596614 1681.61974732609519378 9.009497869018204596614 188.84091754251363682
10.009497869018190385759 1699.22202000066022265 10.009497869018190385759 179.41174217750020148
11.009497869018190385759 1714.26819393457481056 11.009497869018190385759 171.76333774659613596
12.009497869018190385759 1727.37899264061911708 12.009497869018190385759 165.93144632536058225
13.009497869018190385759 1738.97865121180211645 13.009497869018190385759 161.39017823205529112
14.009497869018204596614 1749.36737637368219112 14.009497869018204596614 157.78337951037954667
15.009497869018190385759 1758.76434849494239643 15.009497869018190385759 154.86449016896702346
16.009497869018190385759 1767.33404302794315299 16.009497869018190385759 152.46089740692573855
17.009497869018190385759 1775.20293612759132884 17.009497869018190385759 150.49533149623042050
18.009497869018190385759 1782.47034544580264992 18.009497869018190385759 148.77443028548748316
19.009497869018204596614 1789.21543692374052625 19.009497869018204596614 147.35107721977925621
20.009497869018190385759 1795.50266162722414265 20.009497869018190385759 146.04557041226277647
21.009497869018204596614 1801.38526715338252870 21.009497869018204596614 144.89553675210771644
22.009497869018190385759 1806.90741214813419901 22.009497869018190385759 143.87164685813107212
23.009497869018190385759 1812.10647364707938323 23.009497869018190385759 142.96721532477036476
24.009497869018190385759 1817.01433361546560263 24.009497869018190385759 142.12921395018642556
25.009497869018190385759 1821.65820609643833450 25.009497869018190385759 141.36329454317680643
26.009497869018204596614 1826.06188860237557492 26.009497869018204596614 140.67375010055434359
27.009497869018190385759 1830.24587057169105719 27.009497869018190385759 140.01681945025686105
28.009497869018190385759 1834.22835800600114453 28.009497869018190385759 139.40419219115435112
29.009497869018190385759 1838.02520954591159352 29.009497869018190385759 138.83414974305136980
30.009497869018190385759 1841.65066082054840990 30.009497869018190385759 138.29150503454218324
31.009497869018190385759 1845.11727779716966324 31.009497869018190385759 137.77786609894957337
32.009497869018190385759 1848.43637456780152206 32.009497869018190385759 137.28902586125124685
33.009497869018190385759 1851.61810905321135579 33.009497869018190385759 136.82493146448362609
34.009497869018190385759 1854.67160469326904604 34.009497869018190385759 136.37639905822658193
35.009497869018190385759 1857.60520181459560263 35.009497869018190385759 135.94362587626389427
36.009497869018190385759 1860.42639023918513885 36.009497869018190385759 135.52681204477343613
37.009497869018190385759 1863.14203757919108284 37.009497869018190385759 135.12351425580564523
38.009497869018190385759 1865.75842375800289119 38.009497869018190385759 134.73223313564761838
39.009497869018190385759 1868.28126286527344746 39.009497869018190385759 134.34878860451186711
40.009497869018190385759 1870.71583373414546259 40.009497869018190385759 133.97039914751940159
41.009497869018190385759 1873.06699735150527886 41.009497869018190385759 133.61132975552769153
42.009497869018190385759 1875.33921581839308601 42.009497869018190385759 133.25202552367707654
43.009497869018190385759 1877.53662962185148899 43.009497869018190385759 132.90845306125916636
44.009497869018218807469 1879.66307973065340775 44.009497869018218807469 132.56240189217945158
46.009497869018190385759 1883.71705139548407715 46.009497869018190385759 131.89081347518219900
48.009497869018190385759 1887.52673502284642382 48.009497869018190385759 131.24459093005162913
50.009497869018190385759 1891.11441063173288057 50.009497869018190385759 130.60484552803978886
52.009497869018190385759 1894.49956326374558557 52.009497869018190385759 129.98322013709963585
54.009497869018190385759 1897.69939222524840261 54.009497869018190385759 129.38272022971574415
56.009497869018190385759 1900.72905818999174699 56.009497869018190385759 128.79426814118761513
58.009497869018218807469 1903.60211703130403293 58.009497869018218807469 128.18927357109313903
60.009497869018190385759 1906.33058586687320712 60.009497869018190385759 127.62368568864675922
62.009497869018190385759 1908.92532692492773094 62.009497869018190385759 127.06820778611110256
64.009497869018190385759 1911.39604208699051924 64.009497869018190385759 126.52226857229581469
66.009497869018190385759 1913.75152690644517861 66.009497869018190385759 125.97657456092805717
68.009497869018190385759 1915.99976863979213704 68.009497869018190385759 125.43480015993560528
70.009497869018190385759 1918.14792453014570128 70.009497869018190385759 124.91924296928134197
72.009497869018218807469 1920.20264913135247298 72.009497869018218807469 124.40451915394282878
74.009497869018190385759 1922.16992956605736254 74.009497869018190385759 123.90499971755195929
76.009497869018190385759 1924.05524375867503295 76.009497869018190385759 123.41591194433017620
78.009497869018190385759 1925.86369823107793309 78.009497869018190385759 122.93357591297704801
80.009497869018190385759 1927.59989767877482336 80.009497869018190385759 122.46478117066648394
82.009497869018218807469 1929.26810027909345990 82.009497869018218807469 122.00802018390233172
84.009497869018190385759 1930.87230265930406858 84.009497869018190385759 121.56680563100159986
86.009497869018190385759 1932.41611591685546045 86.009497869018190385759 121.12728825671304378
88.009497869018190385759 1933.90288626141023087 88.009497869018190385759 120.70551417427550689
91.009497869018218807469 1936.03299712034004187 91.009497869018218807469 120.08765051447352334
94.009497869018190385759 1938.05148436642571141 94.009497869018190385759 119.49415070039231068
97.009497869018190385759 1939.96702248475844499 97.009497869018190385759 118.92051884623764124
99.504748934509109403734 1941.48751203263327625 99.504748934509109403734 118.55257263322600636
nan nan nan nan

