Time Pressure difference Time.1 Pressure.1 difference.1
(hr) (psi) (hr) (psi)
0.000200000000006639311 0.70493311286749616 0.000200000000006639311 0.56194746988407629
0.000399999999999067768 1.40946697879838490 0.000399999999999067768 1.47091342483282950
0.000600000000005707079 2.11366248410574675 0.000600000000005707079 2.15209170501087321
0.000799999999998135536 2.81754879297723893 0.000799999999998135536 2.84556171229860588
0.001007140329434719206 3.54625347859888596 0.001007140329434719206 3.57354091856024425
0.001267914553963578328 4.46320804318868536 0.001267914553963578328 4.49647572435765852
0.001596209851982166583 5.61692989209684335 0.001596209851982166583 5.65715208318768958
0.002009509145210586212 7.06837980275327027 0.002009509145210586212 7.11647706316428685
0.002529822128138903281 8.89412051367137835 0.002529822128138903281 8.95078204197026217
0.003184857364445292660 11.19025931050900446 0.003184857364445292660 11.25563150842688565
0.004009497869020606231 14.07735948400124038 0.004009497869020606231 14.15051910702113247
0.005047658755842121536 17.70654371462304866 0.005047658755842121536 17.78462786573790666
0.006354625877804664924 22.26705536255417783 0.006354625877804664924 22.34384944564833475
0.008000000000009777068 27.99558985548533130 0.008000000000009777068 28.05926532425202424
0.010071403294347192059 35.18775467848420391 0.010071403294347192059 35.21728131504133330
0.012679145539692626699 44.21205687652387439 0.012679145539692626699 44.17156014728020352
0.015962098519750611558 55.52684102481251927 0.015962098519750611558 55.35679082491987657
0.020095091452091651263 69.70059104540928274 0.020095091452091651263 69.30413176373986062
0.025298221281346400247 87.43593864947337124 0.025298221281346400247 86.65781410876887492
0.031848573644282396344 109.59754759259519119 0.031848573644282396344 108.19181733481781293
0.040094978690191851456 137.24370416879287404 0.040094978690191851456 134.82463059244952319
0.050476587558421215363 171.66085180007220856 0.050476587558421215363 167.62876320862449120
0.063546258777947173257 214.39934023415938213 0.063546258777947173257 207.82972036100792934
0.079999999999998294697 267.30716193884552467 0.079999999999998294697 256.78647379272860007
0.100714032943542974863 332.55623450021914778 0.100714032943542974863 315.94194629971815402
0.126791455396897845276 412.65266518294862408 0.126791455396897845276 386.72775877638281372
0.159620985197506115583 510.41825332793405323 0.159620985197506115583 470.40286242722118004
0.200950914520774404082 628.92525209155451194 0.200950914520774404082 567.80180529898302666
0.252982212813464002465 771.36050631716318549 0.252982212813464002465 678.96784769107523516
0.318485736442795541734 940.78973804806503267 0.318485736442795541734 802.65449400399029400
0.400949786901819038576 1139.79095163220881659 0.400949786901819038576 935.70691820414583617
0.504765875584169521062 1369.93386344719669978 0.504765875584169521062 1072.39894751121801164
0.635462587779443310865 1631.11059354905410146 0.635462587779443310865 1203.91801805270551995
0.799999999999997157829 1920.78505743621713009 0.799999999999997157829 1318.35152919361280510
1.007140329435330272645 2233.33081118931249875 1.007140329435330272645 1401.65638631216756949
1.267914553968893187630 2559.74655251705189585 1.267914553968893187630 1440.01396679419690372
1.596209851975103788391 2888.09968832153572293 1.596209851975103788391 1423.48185117720322523
2.009509145207687197399 3204.93544300261555691 2.009509145207687197399 1349.95364065991293501
2.529822128134711078928 3497.53172483593743891 2.529822128134711078928 1227.59741655820175765
3.184857364427983839050 3756.38499980622918883 3.184857364427983839050 1073.99099553769792692
4.009497869018190385759 3976.99481240892373535 4.009497869018190385759 911.49682161236967204
5.009497869018190385759 4154.70771920270999544 5.009497869018190385759 764.78151911970030596
6.009497869018190385759 4276.99406047321008373 6.009497869018190385759 661.86852510162123053
7.009497869018204596614 4366.97600125944427418 7.009497869018204596614 590.27295339760291881
8.009497869018190385759 4436.76768960451863677 8.009497869018190385759 539.88300236863494774
9.009497869018204596614 4493.16064979559178028 9.009497869018204596614 504.56863456942915036
10.009497869018190385759 4540.19258971785257017 10.009497869018190385759 479.37459187489798751
11.009497869018190385759 4580.39482732676606247 11.009497869018190385759 458.93863429453284652
12.009497869018190385759 4615.42588885364057205 12.009497869018190385759 443.35626194820315504
13.009497869018190385759 4646.41929834825350554 13.009497869018190385759 431.22233742129594702
14.009497869018204596614 4674.17718545270963659 14.009497869018204596614 421.58524430691323914
15.009497869018190385759 4699.28518351803268160 15.009497869018190385759 413.78619297512636876
16.009497869018190385759 4722.18275850052941678 16.009497869018190385759 407.36397509042933507
17.009497869018190385759 4743.20784511063084210 17.009497869018190385759 402.11213178961253334
18.009497869018190385759 4762.62581259493617836 18.009497869018190385759 397.51401404355800651
19.009497869018204596614 4780.64818635460051155 19.009497869018204596614 393.71092241373190745
20.009497869018190385759 4797.44717475791458128 20.009497869018190385759 390.22270706368004767
21.009497869018204596614 4813.16505135304396390 21.009497869018204596614 387.14990419254019116
22.009497869018190385759 4827.91980469864301995 22.009497869018190385759 384.41414791431236608
23.009497869018190385759 4841.81130340402523871 23.009497869018190385759 381.99757533148414268
24.009497869018190385759 4854.92473366656031430 24.009497869018190385759 379.75849910349489846
25.009497869018190385759 4867.33280934915910620 25.009497869018190385759 377.71202043555439332
26.009497869018204596614 4879.09911560319233104 26.009497869018204596614 375.86960989012470691
27.009497869018190385759 4890.27839865685291443 27.009497869018190385759 374.11434092860423561
28.009497869018190385759 4900.91930356808552460 28.009497869018190385759 372.47744727415687294
29.009497869018190385759 4911.06420342393448664 29.009497869018190385759 370.95433701061364218
30.009497869018190385759 4920.75113474764748389 30.009497869018190385759 369.50443143298809900
31.009497869018190385759 4930.01367285237392935 31.009497869018190385759 368.13202708457504286
32.009497869018190385759 4938.88204813541869953 32.009497869018190385759 366.82588297943152611
33.009497869018190385759 4947.38340179201986757 33.009497869018190385759 365.58585788775286574
34.009497869018190385759 4955.54211096277231263 34.009497869018190385759 364.38741325652335945
35.009497869018190385759 4963.38046036896685109 35.009497869018190385759 363.23107607948111308
36.009497869018190385759 4970.91846224791697750 36.009497869018190385759 362.11738107862180414
37.009497869018190385759 4978.17446633935287537 37.009497869018190385759 361.03979992008629551
38.009497869018190385759 4985.16525212311807991 38.009497869018190385759 359.99432639083130425
39.009497869018190385759 4991.90608721415264881 39.009497869018190385759 358.96979163413743663
40.009497869018190385759 4998.41107625495715183 40.009497869018190385759 357.95876365283584164
41.009497869018190385759 5004.69320743446405686 41.009497869018190385759 356.99935742249829218
42.009497869018190385759 5010.76440314882893290 42.009497869018190385759 356.03932371783753297
43.009497869018190385759 5016.63572646595639526 43.009497869018190385759 355.12132411005217136
44.009497869018218807469 5022.31744016360698879 44.009497869018218807469 354.19670158572864693
46.009497869018190385759 5033.14934552673457802 46.009497869018190385759 352.40226818132271092
48.009497869018190385759 5043.32853174874071556 48.009497869018190385759 350.67561046610012454
50.009497869018190385759 5052.91452935355664522 50.009497869018190385759 348.96625918690756407
52.009497869018190385759 5061.95940089713803900 52.009497869018190385759 347.30532320543665037
54.009497869018190385759 5070.50910162392847269 54.009497869018190385759 345.70083291662223246
56.009497869018190385759 5078.60413970638182946 56.009497869018190385759 344.12853348765270312
58.009497869018218807469 5086.28073541171761462 58.009497869018218807469 342.51203380036554336
60.009497869018190385759 5093.57099756858588080 60.009497869018190385759 341.00082579900254132
62.009497869018190385759 5100.50394922843497625 62.009497869018190385759 339.51663089853661859
64.009497869018190385759 5107.10551308416779648 64.009497869018190385759 338.05792265215944781
66.009497869018190385759 5113.39919018851469446 66.009497869018190385759 336.59986956815794201
68.009497869018190385759 5119.40632188613199105 68.009497869018190385759 335.15228938632634481
70.009497869018190385759 5125.14603178874858713 70.009497869018190385759 333.77475960561923785
72.009497869018218807469 5130.63610036042700813 72.009497869018218807469 332.39945654066110592
74.009497869018190385759 5135.89252473959095369 74.009497869018190385759 331.06477842513089627
76.009497869018190385759 5140.92994152554456377 76.009497869018190385759 329.75797292380963199
78.009497869018190385759 5145.76199495811579254 78.009497869018190385759 328.46920756558853327
80.009497869018190385759 5150.40098843508621940 80.009497869018190385759 327.21662350648114170
82.009497869018218807469 5154.85829948388618504 82.009497869018218807469 325.99619273112068640
84.009497869018190385759 5159.14460679000148957 84.009497869018190385759 324.81730085002629949
86.009497869018190385759 5163.26955893241756712 86.009497869018190385759 323.64294370169074000
88.009497869018190385759 5167.24209673001405463 88.009497869018190385759 322.51599528584017662
91.009497869018218807469 5172.93359167485141370 91.009497869018218807469 320.86511036517060802
94.009497869018190385759 5178.32683677716886450 94.009497869018190385759 319.27932379568545684
97.009497869018190385759 5183.44500960438654147 97.009497869018190385759 317.74662291092516853
99.504748934509109403734 5187.50764256038019084 99.504748934509109403734 316.76349848688465727
nan nan nan nan

