Time Pressure difference Time.1 Pressure.1 difference.1
(hr) (psi) (hr) (psi)
0.000200000000006639311 0.36286993767441361 0.000200000000006639311 0.28926693845272405
0.000399999999999067768 0.72553435980648862 0.000399999999999067768 0.75716440758809156
0.000600000000005707079 1.08802460811110446 0.000600000000005707079 1.10780635582614018
0.000799999999998135536 1.45035569508627638 0.000799999999998135536 1.46477556855040403
0.001007140329434719206 1.82546223927876516 0.001007140329434719206 1.83950866646076294
0.001267914553963578328 2.29747190889051511 0.001267914553963578328 2.31459671289248980
0.001596209851982166583 2.89135942497547083 0.001596209851982166583 2.91206411838232926
0.002009509145210586212 3.63850483353060916 0.002009509145210586212 3.66326328162884218
0.002529822128138903281 4.57831941435740397 0.002529822128138903281 4.60748638760216700
0.003184857364445292660 5.76027515865634765 0.003184857364445292660 5.79392601850545663
0.004009497869020606231 7.24643298113877243 0.004009497869020606231 7.28409248011949639
0.005047658755842121536 9.11458448592166270 0.005047658755842121536 9.15477892498432944
0.006354625877804664924 11.46214420079530427 0.006354625877804664924 11.50167456706336822
0.008000000000009777068 14.41095298346116138 0.008000000000009777068 14.44373043845794946
0.010071403294347192059 18.11317714264358258 0.010071403294347192059 18.12837621411808797
0.012679145539692626699 22.75850861648690682 0.012679145539692626699 22.73766260237800552
0.015962098519750611558 28.58288392776653808 0.015962098519750611558 28.49534923219016136
0.020095091452091651263 35.87893470578328703 0.020095091452091651263 35.67485413103965186
0.025298221281346400247 45.00834622334166824 0.025298221281346400247 44.60780041490345837
0.031848573644282396344 56.41621103939964144 0.031848573644282396344 55.69260018651778665
0.040094978690191851456 70.64729045760766724 0.040094978690191851456 69.40205305585358531
0.050476587558421215363 88.36379148150116691 0.050476587558421215363 86.28824174611602871
0.063546258777947173257 110.36376899892974279 0.063546258777947173257 106.98200481393088523
0.079999999999998294697 137.59849185990159981 0.079999999999998294697 132.18288379413181133
0.100714032943542974863 171.18597195052603865 0.100714032943542974863 162.63363469501433656
0.126791455396897845276 212.41624795722029262 0.126791455396897845276 199.07119578099516843
0.159620985197506115583 262.74186357848788020 0.159620985197506115583 242.14362221755422411
0.200950914520774404082 323.74428561029253615 0.200950914520774404082 292.28050426252258376
0.252982212813464002465 397.06396783268377249 0.252982212813464002465 349.50411049977424227
0.318485736442795541734 484.27901509912203437 0.318485736442795541734 413.17279738576127102
0.400949786901819038576 586.71647569261278932 0.400949786901819038576 481.66259307793103517
0.504765875584169521062 705.18437362807287627 0.504765875584169521062 552.02590450400361988
0.635462587779443310865 839.62717684461358658 0.635462587779443310865 619.72639418061339711
0.799999999999997157829 988.73941563422749823 0.799999999999997157829 678.63195599576761197
1.007140329435330272645 1149.62483315057875188 1.007140329435330272645 721.51379507922672474
1.267914553968893187630 1317.64993730511764625 1.267914553968893187630 741.25866531554879657
1.596209851975103788391 1486.67233070624502034 1.596209851975103788391 732.74862705225575610
2.009509145207687197399 1649.76606038859517867 2.009509145207687197399 694.89939471986076569
2.529822128134711078928 1800.38232825084855904 2.529822128134711078928 631.91555326962929939
3.184857364427983839050 1933.62911442209679080 3.184857364427983839050 552.84542391314789711
4.009497869018190385759 2047.18977356586879068 4.009497869018190385759 469.20025291970858916
5.009497869018190385759 2138.66890858604665482 5.009497869018190385759 393.67738174284454544
6.009497869018190385759 2201.61677729199482201 6.009497869018190385759 340.70209792716269703
7.009497869018204596614 2247.93569840509735513 7.009497869018204596614 303.84770682568461098
8.009497869018190385759 2283.86152617186507996 8.009497869018190385759 277.90907796071411440
9.009497869018204596614 2312.89025184283082126 9.009497869018204596614 259.73072570516063706
10.009497869018190385759 2337.10031772961474417 10.009497869018190385759 246.76189144918009788
11.009497869018190385759 2357.79473992263274340 11.009497869018190385759 236.24231942434042253
12.009497869018190385759 2375.82725801675042021 12.009497869018190385759 228.22116907841393640
13.009497869018190385759 2391.78136254998662480 13.009497869018190385759 221.97513472926215172
14.009497869018204596614 2406.06995614803008721 14.009497869018204596614 217.01436424771449651
15.009497869018190385759 2418.99449824540943155 15.009497869018190385759 212.99974042167070820
16.009497869018190385759 2430.78120744537272913 16.009497869018190385759 209.69385258491993795
17.009497869018190385759 2441.60403833321697675 17.009497869018190385759 206.99042439229168622
18.009497869018190385759 2451.59959184343824745 18.009497869018190385759 204.62350663871464462
19.009497869018204596614 2460.87675236199038409 19.009497869018204596614 202.66583491427050490
20.009497869018190385759 2469.52416551883197826 20.009497869018190385759 200.87024826418479506
21.009497869018204596614 2477.61506775670295610 21.009497869018204596614 199.28849849816708684
22.009497869018190385759 2485.21019462645563181 22.009497869018190385759 197.88024615187745781
23.009497869018190385759 2492.36095429062015683 23.009497869018190385759 196.63629615646647153
24.009497869018190385759 2499.11119702316409530 24.009497869018190385759 195.48371382423113118
25.009497869018190385759 2505.49835286450206695 25.009497869018190385759 194.43027262089930218
26.009497869018204596614 2511.55515277803033314 26.009497869018204596614 193.48187710991072663
27.009497869018190385759 2517.30977782100080731 27.009497869018190385759 192.57833842369711874
28.009497869018190385759 2522.78726842465766822 28.009497869018190385759 191.73573437016813159
29.009497869018190385759 2528.00943647324129415 29.009497869018190385759 190.95170122388137202
30.009497869018190385759 2532.99586157021758481 30.009497869018190385759 190.20535077306115568
31.009497869018190385759 2537.76382687560226259 31.009497869018190385759 189.49889469760887550
32.009497869018190385759 2542.32889372732324773 32.009497869018190385759 188.82654661042755606
33.009497869018190385759 2546.70503327192500365 33.009497869018190385759 188.18823381234975045
34.009497869018190385759 2550.90479383679894454 34.009497869018190385759 187.57132488765549283
35.009497869018190385759 2554.93964665982230144 35.009497869018190385759 186.97609111057116138
36.009497869018190385759 2558.81989319963668095 36.009497869018190385759 186.40280773350542631
37.009497869018190385759 2562.55497913100089136 37.009497869018190385759 185.84811424457808471
38.009497869018190385759 2566.15354182488727020 38.009497869018190385759 185.30994841369829373
39.009497869018190385759 2569.62344040775769827 39.009497869018190385759 184.78256098286175302
40.009497869018190385759 2572.97193535674296072 40.009497869018190385759 184.26212627229801910
41.009497869018190385759 2576.20571244560323976 41.009497869018190385759 183.76826426943242154
42.009497869018190385759 2579.33090882277383571 42.009497869018190385759 183.27407926915839198
43.009497869018190385759 2582.35321929062229174 43.009497869018190385759 182.80153165523344683
44.009497869018218807469 2585.27792669578821005 44.009497869018218807469 182.32557484224048494
46.009497869018190385759 2590.85373630419917390 46.009497869018190385759 181.40187594693824735
48.009497869018190385759 2596.09355353299997660 48.009497869018190385759 180.51306512776821478
50.009497869018190385759 2601.02802219380328097 50.009497869018190385759 179.63316293446482064
52.009497869018190385759 2605.68394190218623407 52.009497869018190385759 178.77818290149983227
54.009497869018190385759 2610.08496848646154831 54.009497869018190385759 177.95225873866269239
56.009497869018190385759 2614.25195385121924119 56.009497869018190385759 177.14290507746940762
58.009497869018218807469 2618.20354266766116780 58.009497869018218807469 176.31079898106185055
60.009497869018190385759 2621.95626321121972069 60.009497869018190385759 175.53289261908514618
62.009497869018190385759 2625.52505532892291740 62.009497869018190385759 174.76889146607078374
64.009497869018190385759 2628.92326293352653011 64.009497869018190385759 174.01800977135951598
66.009497869018190385759 2632.16298337921170969 66.009497869018190385759 173.26746532670230749
68.009497869018190385759 2635.25520229321591614 68.009497869018190385759 172.52231189189879501
70.009497869018190385759 2638.20976370707739989 70.009497869018190385759 171.81321745932703493
72.009497869018218807469 2641.03582025637115294 72.009497869018218807469 171.10526924643241387
74.009497869018190385759 2643.74160659558674524 74.009497869018190385759 170.41823305000835376
76.009497869018190385759 2646.33465703085903442 76.009497869018190385759 169.74554450387367410
78.009497869018190385759 2648.82199504337495455 78.009497869018190385759 169.08214226516716394
80.009497869018190385759 2651.20995390519192370 80.009497869018190385759 168.43736463851922736
82.009497869018218807469 2653.50439028922619400 82.009497869018218807469 167.80913817091928308
84.009497869018190385759 2655.71080113393236388 84.009497869018190385759 167.20229418017882494
86.009497869018190385759 2657.83415312223633009 86.009497869018190385759 166.59778447926464651
88.009497869018190385759 2659.87904861190781958 88.009497869018190385759 166.01767880121172993
91.009497869018218807469 2662.80879099201320059 91.009497869018218807469 165.16787263189419832
94.009497869018190385759 2665.58500688883805196 94.009497869018190385759 164.35157635763738426
97.009497869018190385759 2668.21962713991979399 97.009497869018190385759 163.56260636264860864
99.504748934509109403734 2670.31089983037281854 99.504748934509109403734 163.05653523055690357
nan nan nan nan

