Time Pressure difference Time.1 Pressure.1 difference.1
(hr) (psi) (hr) (psi)
0.000200000000006639311 0.20473854281629758 0.000200000000006639311 0.16321024509029844
0.000399999999999067768 0.40936112961558757 0.000399999999999067768 0.42720744097860219
0.000600000000005707079 0.61388544402599010 0.000600000000005707079 0.62504670535144613
0.000799999999998135536 0.81831995640188993 0.000799999999998135536 0.82645594005366829
0.001007140329434719206 1.02996263959306478 0.001007140329434719206 1.03788791731501773
0.001267914553963578328 1.29628002198868519 0.001267914553963578328 1.30594218204484536
0.001596209851982166583 1.63136334528432525 0.001596209851982166583 1.64304535119736905
0.002009509145210586212 2.05291786479020599 0.002009509145210586212 2.06688708091902562
0.002529822128138903281 2.58318022002734260 0.002529822128138903281 2.59963681502324073
0.003184857364445292660 3.25006350694830592 0.003184857364445292660 3.26905000126684087
0.004009497869020606231 4.08858374623884924 0.004009497869020606231 4.10983199566375212
0.005047658755842121536 5.14263253104754359 0.005047658755842121536 5.16531104483060677
0.006354625877804664924 6.46717310411845059 0.006354625877804664924 6.48947693462749697
0.008000000000009777068 8.13095053654001276 0.008000000000009777068 8.14944423821251185
0.010071403294347192059 10.21982013094110187 0.010071403294347192059 10.22839575383726896
0.012679145539692626699 12.84080990746738316 0.012679145539692626699 12.82904816556190220
0.015962098519750611558 16.12704001429029432 0.015962098519750611558 16.07765117229077845
0.020095091452091651263 20.24361912298781618 0.020095091452091651263 20.12847274365998373
0.025298221281346400247 25.39461736454598295 0.025298221281346400247 25.16862133501433618
0.031848573644282396344 31.83116494424842458 0.031848573644282396344 31.42288909606278935
0.040094978690191851456 39.86062718479698219 0.040094978690191851456 39.15803910949536970
0.050476587558421215363 49.85663464323230443 0.050476587558421215363 48.68556759069849704
0.063546258777947173257 62.26946599480898925 0.063546258777947173257 60.36140638584173956
0.079999999999998294697 77.63584632462337254 0.079999999999998294697 74.58025094806519917
0.100714032943542974863 96.58658050419587937 0.100714032943542974863 91.76117920865486610
0.126791455396897845276 119.84953439788118601 0.126791455396897845276 112.31998661037800957
0.159620985197506115583 148.24426247777068966 0.159620985197506115583 136.62231895761087230
0.200950914520774404082 182.66306022966048772 0.200950914520774404082 164.91055974445080778
0.252982212813464002465 224.03150478633074272 0.252982212813464002465 197.19727335537723434
0.318485736442795541734 273.23999475776150803 0.318485736442795541734 233.12043155251666349
0.400949786901819038576 331.03727756968515905 0.400949786901819038576 271.76375664488767825
0.504765875584169521062 397.87925668005948410 0.504765875584169521062 311.46415712840570222
0.635462587779443310865 473.73459977930025389 0.635462587779443310865 349.66213983585072356
0.799999999999997157829 557.86673450922012307 0.799999999999997157829 382.89784673155696737
1.007140329435330272645 648.64153430055580429 1.007140329435330272645 407.09264584745363891
1.267914553968893187630 743.44468939692410459 1.267914553968893187630 418.23310015510315907
1.596209851975103788391 838.81053521499143244 1.596209851975103788391 413.43156480471310488
2.009509145207687197399 930.83130930182221618 2.009509145207687197399 392.07626399331593348
2.529822128134711078928 1015.81204759107504287 2.529822128134711078928 356.53950941359812532
3.184857364427983839050 1090.99257373356840617 3.184857364427983839050 311.92654651980359404
4.009497869018190385759 1155.06578967248560730 4.009497869018190385759 264.73225279414754141
5.009497869018190385759 1206.68016401873251198 5.009497869018190385759 222.12072456132972320
6.009497869018190385759 1242.19662205007057310 6.009497869018190385759 192.23100020661019016
7.009497869018204596614 1268.33069221938990268 7.009497869018204596614 171.43700889706059343
8.009497869018190385759 1288.60076935385063734 8.009497869018190385759 156.80191095948546831
9.009497869018204596614 1304.97936227829472955 9.009497869018204596614 146.54531771437964949
10.009497869018190385759 1318.63917009514966594 10.009497869018190385759 139.22803967086767329
11.009497869018190385759 1330.31538078203607256 11.009497869018190385759 133.29268481281593495
12.009497869018190385759 1340.48969144981788304 12.009497869018190385759 128.76698989286654751
13.009497869018190385759 1349.49131923691879820 13.009497869018190385759 125.24285124632679356
14.009497869018204596614 1357.55323213856718212 14.009497869018204596614 122.44388441499486930
15.009497869018190385759 1364.84551965222635772 15.009497869018190385759 120.17875262323623531
16.009497869018190385759 1371.49581887972863115 16.009497869018190385759 118.31350398139979063
17.009497869018190385759 1377.60227850910860070 17.009497869018190385759 116.78817523051320393
18.009497869018190385759 1383.24197154469220550 18.009497869018190385759 115.45271246129313170
19.009497869018204596614 1388.47633275470116132 19.009497869018204596614 114.34815456172142945
20.009497869018190385759 1393.35537779273545311 20.009497869018190385759 113.33504833254463051
21.009497869018204596614 1397.92042813795615075 21.009497869018204596614 112.44259318933281122
22.009497869018190385759 1402.20575201400947662 22.009497869018190385759 111.64802879211433151
23.009497869018190385759 1406.24035494379018019 23.009497869018190385759 110.94616709745585581
24.009497869018190385759 1410.04897813692286945 24.009497869018190385759 110.29585688247904329
25.009497869018190385759 1413.65274037767767368 25.009497869018190385759 109.70148409344319873
26.009497869018204596614 1417.07010913622821136 26.009497869018204596614 109.16638020421568456
27.009497869018190385759 1420.31698473386745718 27.009497869018190385759 108.65658544089333759
28.009497869018190385759 1423.40749548730696006 28.009497869018190385759 108.18117122720495615
29.009497869018190385759 1426.35394810187449366 29.009497869018190385759 107.73880390154775455
30.009497869018190385759 1429.16738978503121871 30.009497869018190385759 107.31769791324093433
31.009497869018190385759 1431.85757204449123492 31.009497869018190385759 106.91910113672426519
32.009497869018190385759 1434.43327490119600043 32.009497869018190385759 106.53974877560821710
33.009497869018190385759 1436.90238115801275853 33.009497869018190385759 106.17959981155513560
34.009497869018190385759 1439.27197083452415427 34.009497869018190385759 105.83152734486984059
35.009497869018190385759 1441.54851623467038735 35.009497869018190385759 105.49568443394610995
36.009497869018190385759 1443.73782964933616313 36.009497869018190385759 105.17222638174848726
37.009497869018190385759 1445.84524051886774032 37.009497869018190385759 104.85925711964726759
38.009497869018190385759 1447.87562222229871622 38.009497869018190385759 104.55561309580225782
39.009497869018190385759 1449.83340903740463546 39.009497869018190385759 104.25805046280731858
40.009497869018190385759 1451.72269747192376599 40.009497869018190385759 103.96441069492043141
41.009497869018190385759 1453.54725977435418827 41.009497869018190385759 103.68576378504673130
42.009497869018190385759 1455.31055864771201414 42.009497869018190385759 103.40693463351597359
43.009497869018190385759 1457.01580721443360744 43.009497869018190385759 103.14031373208125331
44.009497869018218807469 1458.66598616321994086 44.009497869018218807469 102.87176929172282769
46.009497869018190385759 1461.81197048356170853 46.009497869018190385759 102.35059973152938539
48.009497869018190385759 1464.76838112183054363 48.009497869018190385759 101.84911472805271160
50.009497869018190385759 1467.55250793503569184 50.009497869018190385759 101.35265615109712201
52.009497869018190385759 1470.17947180719693279 52.009497869018190385759 100.87025916002055226
54.009497869018190385759 1472.66261983410436187 54.009497869018190385759 100.40425607731884838
56.009497869018190385759 1475.01371708119222603 56.009497869018190385759 99.94760240609512891
58.009497869018218807469 1477.24328324826751668 58.009497869018218807469 99.47811135170002217
60.009497869018190385759 1479.36064392192679406 60.009497869018190385759 99.03920088141042299
62.009497869018190385759 1481.37422846540152932 62.009497869018190385759 98.60813601067296474
64.009497869018190385759 1483.29156578359516061 64.009497869018190385759 98.18447340310650873
66.009497869018190385759 1485.11948144790380866 66.009497869018190385759 97.76100107882744794
68.009497869018190385759 1486.86417377094267067 68.009497869018190385759 97.34057047111720351
70.009497869018190385759 1488.53119695399300326 70.009497869018190385759 96.94048508026250488
72.009497869018218807469 1490.12571509877830067 72.009497869018218807469 96.54104640968434126
74.009497869018190385759 1491.65237436356483158 74.009497869018190385759 96.15340672087626217
76.009497869018190385759 1493.11542575594353366 76.009497869018190385759 95.77386226594707352
78.009497869018190385759 1494.51883206575757868 78.009497869018190385759 95.39955733309889752
80.009497869018190385759 1495.86616665292945072 80.009497869018190385759 95.03576078228377355
82.009497869018218807469 1497.16073397052673499 82.009497869018218807469 94.68130272946362425
84.009497869018190385759 1498.40563550217279953 84.009497869018190385759 94.33890910166054766
86.009497869018190385759 1499.60367355061953276 86.009497869018190385759 93.99783252729152139
88.009497869018190385759 1500.75744485901236658 88.009497869018190385759 93.67052519517908138
91.009497869018218807469 1502.41046464228270452 91.009497869018218807469 93.19104740239902185
94.009497869018190385759 1503.97686168498648840 94.009497869018190385759 92.73047656875870359
97.009497869018190385759 1505.46336760646863695 97.009497869018190385759 92.28532377342099835
99.504748934509109403734 1506.64330586759569997 99.504748934509109403734 91.99978822641514853
nan nan nan nan

