Time Pressure difference Time.1 Pressure.1 difference.1
(hr) (psi) (hr) (psi)
0.000200000000006639311 0.71824944085554798 0.000200000000006639311 0.57256277037775427
0.000399999999999067768 1.43609209291972406 0.000399999999999067768 1.49869927465257580
0.000600000000005707079 2.15358999266028261 0.000600000000005707079 2.19274514926137387
0.000799999999998135536 2.87077285518223979 0.000799999999998135536 2.89931494417201518
0.001007140329434719206 3.61324291857241864 0.001007140329434719206 3.64104582375146446
0.001267914553963578328 4.54751893892778636 0.001267914553963578328 4.58141505327114373
0.001596209851982166583 5.72303482512346662 0.001596209851982166583 5.76401682147694938
0.002009509145210586212 7.20190291591035692 0.002009509145210586212 7.25090874322406176
0.002529822128138903281 9.06213223529917400 0.002529822128138903281 9.11986411124006757
0.003184857364445292660 11.40164555486336617 0.003184857364445292660 11.46825264672066425
0.004009497869020606231 14.34328363009807461 0.004009497869020606231 14.41782525308056329
0.005047658755842121536 18.04102387924402606 0.005047658755842121536 18.12058305564558580
0.006354625877804664924 22.68768450753749377 0.006354625877804664924 22.76592924627451353
0.008000000000009777068 28.52443216680500626 0.008000000000009777068 28.58931047795690361
0.010071403294347192059 35.85245842683809769 0.010071403294347192059 35.88254282748603430
0.012679145539692626699 45.04723150465184034 0.012679145539692626699 45.00596978406472459
0.015962098519750611558 56.57575419647368165 0.015962098519750611558 56.40249171417455898
0.020095091452091651263 71.01724919974995487 0.020095091452091651263 70.61330072267709568
0.025298221281346400247 89.08762107968775013 0.025298221281346400247 88.29479761023321771
0.031848573644282396344 111.66786726376581385 0.031848573644282396344 110.23558247927718412
0.040094978690191851456 139.83626528650322030 0.040094978690191851456 137.37149492477442436
0.050476587558421215363 174.90355974434746145 0.050476587558421215363 170.79530419013332221
0.063546258777947173257 218.44938680292744948 0.063546258777947173257 211.75566549179438880
0.079999999999998294697 272.35664787865840708 0.079999999999998294697 261.63722182187103726
0.100714032943542974863 338.83828851675224314 0.100714032943542974863 321.91015307751683849
0.126791455396897845276 420.44775685110346330 0.126791455396897845276 394.03312375917164445
0.159620985197506115583 520.06015657852083223 0.159620985197506115583 479.28886691226904304
0.200950914520774404082 640.80577633413406602 0.200950914520774404082 578.52769536366281500
0.252982212813464002465 785.93166110001391189 0.252982212813464002465 691.79368660849809203
0.318485736442795541734 958.56144502417953390 0.318485736442795541734 817.81679849521083270
0.400949786901819038576 1161.32183147413957158 0.400949786901819038576 953.38260969324414873
0.504765875584169521062 1395.81218908492428454 0.504765875584169521062 1092.65677886916296302
0.635462587779443310865 1661.92260003876481278 0.635462587779443310865 1226.66027105015905363
0.799999999999997157829 1957.06907268884947371 0.799999999999997157829 1343.25545418428305311
1.007140329435330272645 2275.51887846089312006 1.007140329435330272645 1428.13395677379071458
1.267914553968893187630 2608.10067865668906961 1.267914553968893187630 1467.21611964981343590
1.596209851975103788391 2942.65647109974634077 1.596209851975103788391 1450.37170905068046523
2.009509145207687197399 3265.47731677834372022 2.009509145207687197399 1375.45453587899055492
2.529822128134711078928 3563.60080110202352444 2.529822128134711078928 1250.78697814607812688
3.184857364427983839050 3827.34386639052627288 3.184857364427983839050 1094.27890100240074389
4.009497869018190385759 4052.12104263152423300 4.009497869018190385759 928.71517951768009880
5.009497869018190385759 4233.19098190311433427 5.009497869018190385759 779.22839551393315105
6.009497869018190385759 4357.78733670410929335 6.009497869018190385759 674.37135438335189974
7.009497869018204596614 4449.46905441192393482 7.009497869018204596614 601.42332796001335282
8.009497869018190385759 4520.57912175761430262 8.009497869018190385759 550.08150064242261124
9.009497869018204596614 4578.03735628523736523 9.009497869018204596614 514.10003734760016414
10.009497869018190385759 4625.95773899233427073 10.009497869018190385759 488.43007412991386218
11.009497869018190385759 4666.91940493860602146 11.009497869018190385759 467.60807720918757013
12.009497869018190385759 4702.61221024875158037 12.009497869018190385759 451.73135072172300397
13.009497869018190385759 4734.19109146935352328 13.009497869018190385759 439.36821392512212014
14.009497869018204596614 4762.47333063245332596 14.009497869018204596614 429.54907418756329207
15.009497869018190385759 4788.05562382061543758 15.009497869018190385759 421.60269721078395833
16.009497869018190385759 4811.38573859026746504 16.009497869018190385759 415.05916234125209030
17.009497869018190385759 4832.80799330634454236 17.009497869018190385759 409.70811066639384990
18.009497869018190385759 4852.59277009377728973 18.009497869018190385759 405.02313355323559563
19.009497869018204596614 4870.95559011100340285 19.009497869018204596614 401.14820075920971476
20.009497869018190385759 4888.07191477695414505 20.009497869018190385759 397.59409232108134802
21.009497869018204596614 4904.08670521567546530 21.009497869018204596614 394.46324358696836043
22.009497869018190385759 4919.12017881337396830 22.009497869018190385759 391.67580832355560005
23.009497869018190385759 4933.27409071744295943 23.009497869018190385759 389.21358619961137038
24.009497869018190385759 4946.63523630961208255 24.009497869018190385759 386.93221337227402046
25.009497869018190385759 4959.27770303225952375 25.009497869018190385759 384.84707631155072249
26.009497869018204596614 4971.26627717302835663 26.009497869018204596614 382.96986226113062912
27.009497869018190385759 4982.65673912734837359 27.009497869018190385759 381.18143591662982317
28.009497869018190385759 4993.49865286807198572 28.009497869018190385759 379.51362101251169179
29.009497869018190385759 5003.83519191836421669 29.009497869018190385759 377.96173889038902871
30.009497869018190385759 5013.70511131903185742 30.009497869018190385759 376.48444430539399264
31.009497869018190385759 5023.14262062762645655 31.009497869018190385759 375.08611496338636471
32.009497869018190385759 5032.17852129972470721 32.009497869018190385759 373.75529753394266663
33.009497869018190385759 5040.84046723319079319 33.009497869018190385759 372.49184811939869633
34.009497869018190385759 5049.15329605770057242 34.009497869018190385759 371.27076462854739702
35.009497869018190385759 5057.13971345739992103 35.009497869018190385759 370.09258401014432138
36.009497869018190385759 5064.82010970478404488 36.009497869018190385759 368.95785108719081791
37.009497869018190385759 5072.21318116984821245 37.009497869018190385759 367.85991420429104437
38.009497869018190385759 5079.33602430017799634 38.009497869018190385759 366.79469147023309006
39.009497869018190385759 5086.20419511902491649 39.009497869018190385759 365.75080304635253015
40.009497869018190385759 5092.83206470841560076 40.009497869018190385759 364.72067654356237654
41.009497869018190385759 5099.23286660677968030 41.009497869018190385759 363.74314693697289158
42.009497869018190385759 5105.41874842672950763 42.009497869018190385759 362.76497800294430363
43.009497869018190385759 5111.40098221974039916 43.009497869018190385759 361.82963719831758453
44.009497869018218807469 5117.19002462950811605 44.009497869018218807469 360.88754836893008360
46.009497869018190385759 5128.22654685899942706 46.009497869018190385759 359.05921775735714618
48.009497869018190385759 5138.59801995178713696 48.009497869018190385759 357.29994313133931882
50.009497869018190385759 5148.36509897534870106 50.009497869018190385759 355.55830186340165255
52.009497869018190385759 5157.58082995776840107 52.009497869018190385759 353.86599046787694078
54.009497869018190385759 5166.29203624728506838 54.009497869018190385759 352.23119103547219311
56.009497869018190385759 5174.53999122385812370 56.009497869018190385759 350.62919055471587626
58.009497869018218807469 5182.36159936282456329 58.009497869018218807469 348.98215486389074158
60.009497869018190385759 5189.78957603505205043 60.009497869018190385759 347.44239984006986788
62.009497869018190385759 5196.85349254325774382 62.009497869018190385759 345.93016820004373812
64.009497869018190385759 5203.57976126521407423 64.009497869018190385759 344.44390466211763169
66.009497869018190385759 5209.99232719325573271 66.009497869018190385759 342.95830866271580817
68.009497869018190385759 5216.11293481432403496 68.009497869018190385759 341.48338340070796448
70.009497869018190385759 5221.96106898900870874 70.009497869018190385759 340.07983180596153261
72.009497869018218807469 5227.55484605790934438 72.009497869018218807469 338.67854899007147651
74.009497869018190385759 5232.91056534860399552 74.009497869018190385759 337.31865853705778591
76.009497869018190385759 5238.04313994869607995 76.009497869018190385759 335.98716721752981584
78.009497869018190385759 5242.96647184044195455 78.009497869018190385759 334.67405682302586456
80.009497869018190385759 5247.69309683527626476 80.009497869018190385759 333.39781119963777201
82.009497869018218807469 5252.23460738440917339 82.009497869018218807469 332.15432624198012945
84.009497869018190385759 5256.60188389583436219 84.009497869018190385759 330.95316485663835238
86.009497869018190385759 5260.80475721213224460 86.009497869018190385759 329.75662386606734344
88.009497869018190385759 5264.85233704604797822 88.009497869018190385759 328.60838716845347562
91.009497869018218807469 5270.65134547272373311 91.009497869018218807469 326.92631670028595181
94.009497869018190385759 5276.14647005749338859 94.009497869018190385759 325.31057430422259813
97.009497869018190385759 5281.36132619667660038 97.009497869018190385759 323.74892039212329564
99.504748934509109403734 5285.50070310461342160 99.504748934509109403734 322.74722455039130864
nan nan nan nan

