Time Pressure difference Time.1 Pressure.1 difference.1
(hr) (psi) (hr) (psi)
0.000200000000006639311 0.26216520726477133 0.000200000000006639311 0.20898872846928460
0.000399999999999067768 0.52418193426386217 0.000399999999999067768 0.54703391832625881
0.000600000000005707079 0.78607282466742634 0.000600000000005707079 0.80036468368172975
0.000799999999998135536 1.04784872466095669 0.000799999999998135536 1.05826675250774604
0.001007140329434719206 1.31885459947892447 0.001007140329434719206 1.32900282095215694
0.001267914553963578328 1.65987075986356047 0.001267914553963578328 1.67224303798425322
0.001596209851982166583 2.08894086896163600 0.001596209851982166583 2.10389953506980198
0.002009509145210586212 2.62873629028014211 0.002009509145210586212 2.64662370117680101
0.002529822128138903281 3.30773076954720668 0.002529822128138903281 3.32880323874927164
0.003184857364445292660 4.16166668572648923 0.003184857364445292660 4.18597866015875919
0.004009497869020606231 5.23538162628145276 0.004009497869020606231 5.26258975054504852
0.005047658755842121536 6.58507824097551353 0.005047658755842121536 6.61411780130748550
0.006354625877804664924 8.28113629185899214 0.006354625877804664924 8.30969607482789208
0.008000000000009777068 10.41158300410611481 0.008000000000009777068 10.43526396356480390
0.010071403294347192059 13.08635504571726749 0.010071403294347192059 13.09733602625504112
0.012679145539692626699 16.44250049126921098 0.012679145539692626699 16.42743972419511778
0.015962098519750611558 20.65047806707903533 0.015962098519750611558 20.58723625720160655
0.020095091452091651263 25.92170741358196295 0.020095091452091651263 25.77426387907680905
0.025298221281346400247 32.51749784484547234 0.025298221281346400247 32.22811268507933136
0.031848573644282396344 40.75941852617176409 0.031848573644282396344 40.23662628154381338
0.040094978690191851456 51.04104700492297297 0.040094978690191851456 50.14139154264651665
0.050476587558421215363 63.84081265291941776 0.050476587558421215363 62.34127557345539827
0.063546258777947173257 79.73529182262126369 0.063546258777947173257 77.29204476235832999
0.079999999999998294697 99.41175444006651674 0.079999999999998294697 95.49910182374202350
0.100714032943542974863 123.67793845049473589 0.100714032943542974863 117.49907093791172485
0.126791455396897845276 153.46586721679906873 0.126791455396897845276 143.82437309865477459
0.159620985197506115583 189.82497024592589696 0.159620985197506115583 174.94321329937977794
0.200950914520774404082 233.89782102578476497 0.200950914520774404082 211.16596064838213920
0.252982212813464002465 286.86960978737471351 0.252982212813464002465 252.50870368676351063
0.318485736442795541734 349.88048109225564986 0.318485736442795541734 298.50786967090550661
0.400949786901819038576 423.88919688801149732 0.400949786901819038576 347.99017619162447090
0.504765875584169521062 509.47953599275916758 0.504765875584169521062 398.82605485954394453
0.635462587779443310865 606.61137776617715645 0.635462587779443310865 447.73810588736984073
0.799999999999997157829 714.34155028619647965 0.799999999999997157829 490.29602325382290928
1.007140329435330272645 830.57757440924831371 1.007140329435330272645 521.27716846320288369
1.267914553968893187630 951.97185837411029752 1.267914553968893187630 535.54238434494925514
1.596209851975103788391 1074.08666094602563135 1.596209851975103788391 529.39407688408380181
2.009509145207687197399 1191.91813995965026152 2.009509145207687197399 502.04887462558741618
2.529822128134711078928 1300.73493898857191198 2.529822128134711078928 456.54449376131469762
3.184857364427983839050 1397.00268587834966638 3.184857364427983839050 399.41813883633392379
4.009497869018190385759 1479.04765750745104924 4.009497869018190385759 338.98642126079863601
5.009497869018190385759 1545.13923441423071381 5.009497869018190385759 284.42287901145880369
6.009497869018190385759 1590.61762579582227772 6.009497869018190385759 246.14945148407400666
7.009497869018204596614 1624.08198393946258875 7.009497869018204596614 219.52299919745561851
8.009497869018190385759 1650.03757051407706058 8.009497869018190385759 200.78293476519482397
9.009497869018204596614 1671.01015901488949567 9.009497869018204596614 187.64949219524223167
10.009497869018190385759 1688.50137634135012377 10.009497869018190385759 178.27980689562323846
11.009497869018190385759 1703.45262173309470199 11.009497869018190385759 170.67965738226428130
12.009497869018190385759 1716.48070246623001367 12.009497869018190385759 164.88456022867060824
13.009497869018190385759 1728.00717707166450055 13.009497869018190385759 160.37194366907701237
14.009497869018204596614 1738.33035822621422994 14.009497869018204596614 156.78790077529831137
15.009497869018190385759 1747.66804345711921087 15.009497869018190385759 153.88742713950981056
16.009497869018190385759 1756.18367051672589696 16.009497869018190385759 151.49899900057289415
17.009497869018190385759 1764.00291760312688893 17.009497869018190385759 149.54583413663277724
18.009497869018190385759 1771.22447575844739731 18.009497869018190385759 147.83579034677777031
19.009497869018204596614 1777.92701145419027853 19.009497869018204596614 146.42141742659453030
20.009497869018190385759 1784.17456912484431086 20.009497869018190385759 145.12414725508764946
21.009497869018204596614 1790.02006042055381840 21.009497869018204596614 143.98136932780420238
22.009497869018190385759 1795.50736538379260310 22.009497869018190385759 142.96393930697567498
23.009497869018190385759 1800.67362523290216814 23.009497869018190385759 142.06521396625444709
24.009497869018190385759 1805.55052078508424529 24.009497869018190385759 141.23249966658900689
25.009497869018190385759 1810.16509438605066862 25.009497869018190385759 140.47141255867725818
26.009497869018204596614 1814.54099340614584435 26.009497869018204596614 139.78621855417861752
27.009497869018190385759 1818.69857801287912480 27.009497869018190385759 139.13343257675367681
28.009497869018190385759 1822.65593934350272320 28.009497869018190385759 138.52467047385999876
29.009497869018190385759 1826.42883598410776358 29.009497869018190385759 137.95822450807943937
30.009497869018190385759 1830.03141374912524952 30.009497869018190385759 137.41900342549143943
31.009497869018190385759 1833.47615932526309734 31.009497869018190385759 136.90860511409817946
32.009497869018190385759 1836.77431542226327110 32.009497869018190385759 136.42284904193735429
33.009497869018190385759 1839.93597587306499008 33.009497869018190385759 135.96168268552793279
34.009497869018190385759 1842.97020655640289988 34.009497869018190385759 135.51598013672355592
35.009497869018190385759 1845.88529517854135520 35.009497869018190385759 135.08593738493098613
36.009497869018190385759 1848.68868430707675543 36.009497869018190385759 134.67175329370235204
37.009497869018190385759 1851.38719822537927939 37.009497869018190385759 134.27099997028005873
38.009497869018190385759 1853.98707723587017426 38.009497869018190385759 133.88218750072240937
39.009497869018190385759 1856.49399937716452769 39.009497869018190385759 133.50116217798498042
40.009497869018190385759 1858.91321017746349753 40.009497869018190385759 133.12516003617858473
41.009497869018190385759 1861.24953995496571224 41.009497869018190385759 132.76835606621835950
42.009497869018190385759 1863.50742265865551417 42.009497869018190385759 132.41131873803874441
43.009497869018190385759 1865.69097265262848850 43.009497869018190385759 132.06991392522598971
44.009497869018218807469 1867.80400667241588053 44.009497869018218807469 131.72604604427925779
46.009497869018190385759 1871.83240122895108470 46.009497869018190385759 131.05869477817785196
48.009497869018190385759 1875.61804899746584852 48.009497869018190385759 130.41654934689674405
50.009497869018190385759 1879.18308942900898728 50.009497869018190385759 129.78084019347801359
52.009497869018190385759 1882.54688463116667663 52.009497869018190385759 129.16313672929462086
54.009497869018190385759 1885.72652539732894184 54.009497869018190385759 128.56642546485949197
56.009497869018190385759 1888.73707675030732389 56.009497869018190385759 127.98168600780473980
58.009497869018218807469 1891.59200903741566435 58.009497869018218807469 127.38050843815247504
60.009497869018190385759 1894.30326355856482223 60.009497869018190385759 126.81848893351335050
62.009497869018190385759 1896.88163401057499868 62.009497869018190385759 126.26651562342269131
64.009497869018190385759 1899.33676106435973452 64.009497869018190385759 125.72402082105104171
66.009497869018190385759 1901.67738478085266252 66.009497869018190385759 125.18176967410830969
68.009497869018190385759 1903.91144202376813155 68.009497869018190385759 124.64341340813790282
70.009497869018190385759 1906.04604488011318608 70.009497869018190385759 124.13110894423856223
72.009497869018218807469 1908.08780591916729463 72.009497869018218807469 123.61963259776653956
74.009497869018190385759 1910.04267448993073231 74.009497869018190385759 123.12326470356107677
76.009497869018190385759 1911.91609395578120711 76.009497869018190385759 122.63726265761513901
78.009497869018190385759 1913.71313862078704915 78.009497869018190385759 122.15796975579736738
80.009497869018190385759 1915.43838412875106769 80.009497869018190385759 121.69213270902190516
82.009497869018218807469 1917.09606179152820005 82.009497869018218807469 121.23825349504488713
84.009497869018190385759 1918.69014302107507319 84.009497869018190385759 120.79982263017507194
86.009497869018190385759 1920.22421613189089840 86.009497869018190385759 120.36307823616596124
88.009497869018190385759 1921.70160622190610411 88.009497869018190385759 119.94396518894882320
91.009497869018218807469 1923.81827789560588826 91.009497869018218807469 119.32999972258411958
94.009497869018190385759 1925.82403020638525959 94.009497869018190385759 118.74024438682516802
97.009497869018190385759 1927.72748291072207394 97.009497869018190385759 118.17023166108786825
99.504748934509109403734 1929.23837946460412240 99.504748934509109403734 117.80460687528767494
nan nan nan nan

