Time Pressure difference Time.1 Pressure.1 difference.1
(hr) (psi) (hr) (psi)
0.000200000000006639311 0.53015630802431535 0.000200000000006639311 0.42262165090455328
0.000399999999999067768 1.06001235595581011 0.000399999999999067768 1.10622414594865659
0.000600000000005707079 1.58961393432746223 0.000600000000005707079 1.61851524922305345
0.000799999999998135536 2.11898297653660084 0.000799999999998135536 2.14005054396010852
0.001007140329434719206 2.66701707894626949 0.001007140329434719206 2.68753903792547266
0.001267914553963578328 3.35662753661297808 0.001267914553963578328 3.38164703236815622
0.001596209851982166583 4.22430264612242024 0.001596209851982166583 4.25455239314115463
0.002009509145210586212 5.31588894256650857 0.002009509145210586212 5.35206126237975344
0.002529822128138903281 6.68896666730657330 0.002529822128138903281 6.73157988280408226
0.003184857364445292660 8.41581485335801105 0.003184857364445292660 8.46497906832104619
0.004009497869020606231 10.58710506648027128 0.004009497869020606231 10.64212593999109835
0.005047658755842121536 13.31649155397270512 0.005047658755842121536 13.37521599819958062
0.006354625877804664924 16.74629783464818544 0.006354625877804664924 16.80405206242973648
0.008000000000009777068 21.05453451941458809 0.008000000000009777068 21.10242268187549186
0.010071403294347192059 26.46351798133936128 0.010071403294347192059 26.48572396420463804
0.012679145539692626699 33.25038988234440041 0.012679145539692626699 33.21993366448346308
0.015962098519750611558 41.75985564675982431 0.015962098519750611558 41.63196665345213887
0.020095091452091651263 52.41945276968797174 0.020095091452091651263 52.12128917768865932
0.025298221281346400247 65.75760675290972301 0.025298221281346400247 65.17240565204932068
0.031848573644282396344 82.42460190848068180 0.031848573644282396344 81.36739981378859454
0.040094978690191851456 103.21633949884422066 0.040094978690191851456 101.39703623068518823
0.050476587558421215363 129.10031003145925865 0.050476587558421215363 126.06791282632090656
0.063546258777947173257 161.24247901907855862 0.063546258777947173257 156.30169051943573777
0.079999999999998294697 201.03265897880115176 0.079999999999998294697 193.12040591023389879
0.100714032943542974863 250.10427553322267613 0.100714032943542974863 237.60923234111038482
0.126791455396897845276 310.34208703841585475 0.126791455396897845276 290.84484337727968750
0.159620985197506115583 383.86827316398347421 0.159620985197506115583 353.77405356096801370
0.200950914520774404082 472.99337140769807775 0.200950914520774404082 427.02449820006165737
0.252982212813464002465 580.11409979224674771 0.252982212813464002465 510.62871189989954246
0.318485736442795541734 707.53608398656137979 0.318485736442795541734 603.64924755672006995
0.400949786901819038576 857.19815370686762890 0.400949786901819038576 703.71346740972944644
0.504765875584169521062 1030.28083945202388350 0.504765875584169521062 806.51491093818879108
0.635462587779443310865 1226.70300837160289120 0.635462587779443310865 905.42594746112558823
0.799999999999997157829 1444.55735724541955278 0.799999999999997157829 991.48751369106423681
1.007140329435330272645 1679.61242824981354715 1.007140329435330272645 1054.13827400336572282
1.267914553968893187630 1925.09864693431200067 1.267914553968893187630 1082.98571056423065784
1.596209851975103788391 2172.04191435751818062 1.596209851975103788391 1070.55246658781402402
2.009509145207687197399 2410.32334969618159448 2.009509145207687197399 1015.25439090952147581
2.529822128134711078928 2630.37509884355631584 2.529822128134711078928 923.23442071732529257
3.184857364427983839050 2825.04987588732956283 3.184857364427983839050 807.71223631347527316
4.009497869018190385759 2990.96304073728970252 4.009497869018190385759 685.50587410517061926
5.009497869018190385759 3124.61489625988906482 5.009497869018190385759 575.16626644539439894
6.009497869018190385759 3216.58230994266250491 6.009497869018190385759 497.76889077890513136
7.009497869018204596614 3284.25467863313497219 7.009497869018204596614 443.92428726596580191
8.009497869018190385759 3336.74264259513347497 8.009497869018190385759 406.02771252517175071
9.009497869018204596614 3379.15387711899848000 9.009497869018204596614 379.46897310593431030
10.009497869018190385759 3414.52500549028582100 10.009497869018190385759 360.52138727781590433
11.009497869018190385759 3444.75974617136944289 11.009497869018190385759 345.15219603969001128
12.009497869018190385759 3471.10542054282086610 12.009497869018190385759 333.43322179575613973
13.009497869018190385759 3494.41451363381020201 13.009497869018190385759 324.30770830857795772
14.009497869018204596614 3515.29027996856666505 14.009497869018204596614 317.05997712338103156
15.009497869018190385759 3534.17315454661911645 15.009497869018190385759 311.19457488211986629
16.009497869018190385759 3551.39364482271230372 16.009497869018190385759 306.36464242338070108
17.009497869018190385759 3567.20590004187897648 17.009497869018190385759 302.41490903185734851
18.009497869018190385759 3581.80949542263761032 18.009497869018190385759 298.95682047903954981
19.009497869018204596614 3595.36351205180699253 19.009497869018204596614 296.09664412933557287
20.009497869018190385759 3607.99746200801837404 20.009497869018190385759 293.47327556028835716
21.009497869018204596614 3619.81834440600869129 21.009497869018204596614 291.16232464067070396
22.009497869018190385759 3630.91489444278067822 22.009497869018190385759 289.10485504299526838
23.009497869018190385759 3641.36221991542424803 23.009497869018190385759 287.28743268731454918
24.009497869018190385759 3651.22438647650369603 24.009497869018190385759 285.60349932576889387
25.009497869018190385759 3660.55607975845850888 25.009497869018190385759 284.06441206310290681
26.009497869018204596614 3669.40511999909494989 26.009497869018204596614 282.67879752067233312
27.009497869018190385759 3677.81267998160001298 27.009497869018190385759 281.35871921076852686
28.009497869018190385759 3685.81534400574992105 28.009497869018190385759 280.12766695825024499
29.009497869018190385759 3693.44497943452915933 29.009497869018190385759 278.98218733856060680
30.009497869018190385759 3700.73019224823110562 30.009497869018190385759 277.89176248266045377
31.009497869018190385759 3707.69623330219883428 31.009497869018190385759 276.85962367517623761
32.009497869018190385759 3714.36583785391030688 32.009497869018190385759 275.87731695147328992
33.009497869018190385759 3720.75941787664260119 33.009497869018190385759 274.94473609740089159
34.009497869018190385759 3726.89530659183719763 34.009497869018190385759 274.04342649870767445
35.009497869018190385759 3732.79026358327246271 35.009497869018190385759 273.17378448952712233
36.009497869018190385759 3738.45933937653308021 36.009497869018190385759 272.33621221615356944
37.009497869018190385759 3743.91633418910032560 37.009497869018190385759 271.52579993989962759
38.009497869018190385759 3749.17386729920417565 38.009497869018190385759 270.73953472368310713
39.009497869018190385759 3754.24342096271038827 39.009497869018190385759 269.96901684881407846
40.009497869018190385759 3759.13560280331466856 40.009497869018190385759 269.20865696205004269
41.009497869018190385759 3763.86018079781979395 41.009497869018190385759 268.48712004501936690
42.009497869018190385759 3768.42612137639252978 42.009497869018190385759 267.76511122581166546
43.009497869018190385759 3772.84174469753770609 43.009497869018190385759 267.07471482656808348
44.009497869018218807469 3777.11476904866322002 44.009497869018218807469 266.37933755620912279
46.009497869018190385759 3785.26107804076809771 46.009497869018190385759 265.02980499587084751
48.009497869018190385759 3792.91649908376439271 48.009497869018190385759 263.73124423483562850
50.009497869018190385759 3800.12580306755171478 50.009497869018190385759 262.44569905792218378
52.009497869018190385759 3806.92814447635919350 52.009497869018190385759 261.19656538590686523
54.009497869018190385759 3813.35808469237599638 54.009497869018190385759 259.98988260671586659
56.009497869018190385759 3819.44608853951012861 56.009497869018190385759 258.80740948244954325
58.009497869018218807469 3825.21939605344050506 58.009497869018218807469 257.59169484159724561
60.009497869018190385759 3830.70215519620887790 60.009497869018190385759 256.45516650999365993
62.009497869018190385759 3835.91619322138467396 62.009497869018190385759 255.33895381625478649
64.009497869018190385759 3840.88100570792721555 64.009497869018190385759 254.24190877145872491
66.009497869018190385759 3845.61426700127958611 66.009497869018190385759 253.14535645208573555
68.009497869018190385759 3850.13202720362005493 68.009497869018190385759 252.05668044756774293
70.009497869018190385759 3854.44866853533994799 70.009497869018190385759 251.02068697612688197
72.009497869018218807469 3858.57756308098259979 72.009497869018218807469 249.98636814215009849
74.009497869018190385759 3862.53074174630455673 74.009497869018190385759 248.98260195609020684
76.009497869018190385759 3866.31921222169103203 76.009497869018190385759 247.99979781873290108
78.009497869018190385759 3869.95323587759185102 78.009497869018190385759 247.03056106172357431
80.009497869018190385759 3873.44206568258550760 80.009497869018190385759 246.08853503379984318
82.009497869018218807469 3876.79425828953435484 82.009497869018218807469 245.17069040109075218
84.009497869018190385759 3880.01784477595174394 84.009497869018190385759 244.28408576324295609
86.009497869018190385759 3883.12008151115696819 86.009497869018190385759 243.40089154424671847
88.009497869018190385759 3886.10769258207665189 88.009497869018190385759 242.55335182654096116
91.009497869018218807469 3890.38807307778051836 91.009497869018218807469 241.31177721678119497
94.009497869018190385759 3894.44414997291232794 94.009497869018190385759 240.11916087113533536
97.009497869018190385759 3898.29335433057167393 97.009497869018190385759 238.96646847019994198
99.504748934509109403734 3901.34872291731062433 99.504748934509109403734 238.22709390335953117
nan nan nan nan

