Time Pressure difference Time.1 Pressure.1 difference.1
(hr) (psi) (hr) (psi)
0.000200000000006639311 0.22388076429912215 0.000200000000006639311 0.17846973954996048
0.000399999999999067768 0.44763473116501246 0.000399999999999067768 0.46714960009448769
0.000600000000005707079 0.67128123757313551 0.000600000000005707079 0.68348603146154063
0.000799999999998135536 0.89482954582157870 0.000799999999998135536 0.90372621087169414
0.001007140329434719206 1.12625995955501801 0.001007140329434719206 1.13492621852739739
0.001267914553963578328 1.41747693461364377 0.001267914553963578328 1.42804246735798102
0.001596209851982166583 1.78388918651009565 0.001596209851982166583 1.79666341248818018
0.002009509145210586212 2.24485733995351788 0.002009509145210586212 2.26013262100495060
0.002529822128138903281 2.82469706986729685 0.002529822128138903281 2.84269228959858422
0.003184857364445292660 3.55393123320770021 0.003184857364445292660 3.57469288756414683
0.004009497869020606231 4.47084970625305012 0.004009497869020606231 4.49408458062418426
0.005047658755842121536 5.62344776769020083 0.005047658755842121536 5.64824663032289997
0.006354625877804664924 7.07182750003196414 0.006354625877804664924 7.09621664802762897
0.008000000000009777068 8.89116135906204619 0.008000000000009777068 8.91138414666327705
0.010071403294347192059 11.17533176919982374 0.010071403294347192059 11.18470917797652575
0.012679145539692626699 14.04137343540132576 0.012679145539692626699 14.02851201843964013
0.015962098519750611558 17.63485269855321036 0.015962098519750611558 17.58084620059438663
0.020095091452091651263 22.13631521985253059 0.020095091452091651263 22.01040312213226002
0.025298221281346400247 27.76891085797914727 0.025298221281346400247 27.52178511836933694
0.031848573644282396344 34.80724947155620441 0.031848573644282396344 34.36080149122312832
0.040094978690191851456 43.58743379150564579 0.040094978690191851456 42.81915658721241869
0.050476587558421215363 54.51802731312800177 0.050476587558421215363 53.23747025161745938
0.063546258777947173257 68.09140793741308073 0.063546258777947173257 66.00495251134725549
0.079999999999998294697 84.89448236310441587 0.079999999999998294697 81.55320123995747394
0.100714032943542974863 105.61703315296216488 0.100714032943542974863 100.34047645174048569
0.126791455396897845276 131.05497867085381358 0.126791455396897845276 122.82144877313692177
0.159620985197506115583 162.10449840048909209 0.159620985197506115583 149.39595040486716471
0.200950914520774404082 199.74131382836856119 0.200950914520774404082 180.32902671242791826
0.252982212813464002465 244.97753978667876140 0.252982212813464002465 215.63441679917264082
0.318485736442795541734 298.78682353592620302 0.318485736442795541734 254.91624425864628734
0.400949786901819038576 361.98791734246066198 0.400949786901819038576 297.17256316046666598
0.504765875584169521062 435.07934978429273087 0.504765875584169521062 340.58478970545183984
0.635462587779443310865 518.02685910825925930 0.635462587779443310865 382.35412851969039139
0.799999999999997157829 610.02500643487894649 0.799999999999997157829 418.69723890564563362
1.007140329435330272645 709.28688100345334533 1.007140329435330272645 445.15415338603668260
1.267914553968893187630 812.95374572265291135 1.267914553968893187630 457.33619488505189565
1.596209851975103788391 917.23591045866953664 1.596209851975103788391 452.08573549783665158
2.009509145207687197399 1017.86025285443156463 2.009509145207687197399 428.73380087073979894
2.529822128134711078928 1110.78634472357407503 2.529822128134711078928 389.87450419617033504
3.184857364427983839050 1192.99594444849526553 3.184857364427983839050 341.09041062531372290
4.009497869018190385759 1263.05974561747416374 4.009497869018190385759 289.48364228303125856
5.009497869018190385759 1319.49985415056539750 5.009497869018190385759 242.88810937803941670
6.009497869018190385759 1358.33695663198773218 6.009497869018190385759 210.20381729909811952
7.009497869018204596614 1386.91445612608072224 7.009497869018204596614 187.46567233052559232
8.009497869018190385759 1409.07970307392588438 8.009497869018190385759 171.46225222805526300
9.009497869018204596614 1426.98962785715957580 9.009497869018204596614 160.24670920800051022
10.009497869018190385759 1441.92657217721625784 10.009497869018190385759 152.24529541245286168
11.009497869018190385759 1454.69446109905561570 11.009497869018190385759 145.75500900263202197
12.009497869018190385759 1465.82002845528859325 12.009497869018190385759 140.80618000480126284
13.009497869018190385759 1475.66327184850092635 13.009497869018190385759 136.95254872057688544
14.009497869018204596614 1484.47894083444953139 14.009497869018204596614 133.89188986842935947
15.009497869018190385759 1492.45302758719071790 15.009497869018190385759 131.41497746199408425
16.009497869018190385759 1499.72510275872764396 16.009497869018190385759 129.37533565445750128
17.009497869018190385759 1506.40249154044818169 17.009497869018190385759 127.70739486588639977
18.009497869018190385759 1512.56947294927704206 18.009497869018190385759 126.24707175645467316
19.009497869018204596614 1518.29322565453071547 19.009497869018204596614 125.03924218334580587
20.009497869018190385759 1523.62844157010499657 20.009497869018190385759 123.93141464005896069
21.009497869018204596614 1528.62030556548870663 21.009497869018204596614 122.95551856882326547
22.009497869018190385759 1533.30628980393726124 22.009497869018190385759 122.08666563040145547
23.009497869018190385759 1537.71811170682758529 23.009497869018190385759 121.31918272038872431
24.009497869018190385759 1541.88282568631007052 24.009497869018190385759 120.60807114384903116
25.009497869018190385759 1545.82352504713549024 25.009497869018190385759 119.95812691518787574
26.009497869018204596614 1549.56040389286749814 26.009497869018204596614 119.37299298753666221
27.009497869018190385759 1553.11084916020467972 27.009497869018190385759 118.81553448618009838
28.009497869018190385759 1556.49031010603880532 28.009497869018190385759 118.29567097608996562
29.009497869018190385759 1559.71224406261899276 29.009497869018190385759 117.81194410372498282
30.009497869018190385759 1562.78873110639597144 30.009497869018190385759 117.35146641732444550
31.009497869018190385759 1565.73043447141503748 31.009497869018190385759 116.91560246251556521
32.009497869018190385759 1568.54695507488509065 32.009497869018190385759 116.50078219771792476
33.009497869018190385759 1571.24691272969675992 33.009497869018190385759 116.10696076954606326
34.009497869018190385759 1573.83804940848358456 34.009497869018190385759 115.72634494215439815
35.009497869018190385759 1576.32744254929411909 35.009497869018190385759 115.35910208427441148
36.009497869018190385759 1578.72144786858302723 36.009497869018190385759 115.00540201906642324
37.009497869018190385759 1581.02589308770461685 37.009497869018190385759 114.66317140319152657
38.009497869018190385759 1583.24610722682245978 38.009497869018190385759 114.33113789744228939
39.009497869018190385759 1585.38693915065778128 39.009497869018190385759 114.00575436786654393
40.009497869018190385759 1587.45286837377034317 40.009497869018190385759 113.68466047533982533
41.009497869018190385759 1589.44801983455795380 41.009497869018190385759 113.37996121210393596
42.009497869018190385759 1591.37617998469340819 42.009497869018190385759 113.07506266835690667
43.009497869018190385759 1593.24086236049856780 43.009497869018190385759 112.78351379646284158
44.009497869018218807469 1595.04532633295184496 44.009497869018218807469 112.48986154257497105
46.009497869018190385759 1598.48544739869157638 46.009497869018190385759 111.91996474707889320
48.009497869018190385759 1601.71827041370875122 48.009497869018190385759 111.37159293433404628
50.009497869018190385759 1604.76270176635989628 50.009497869018190385759 110.82871749855740973
52.009497869018190385759 1607.63527608185336248 52.009497869018190385759 110.30121834977856565
54.009497869018190385759 1610.35058835517929765 54.009497869018190385759 109.79164587316573432
56.009497869018190385759 1612.92150363756400111 56.009497869018190385759 109.29229693999833728
58.009497869018218807469 1615.35952517798341432 58.009497869018218807469 108.77891038051750172
60.009497869018190385759 1617.67485046747287925 60.009497869018190385759 108.29896356544473690
62.009497869018190385759 1619.87669698045920086 62.009497869018190385759 107.82759588158954500
64.009497869018190385759 1621.97329754385009437 64.009497869018190385759 107.36432254242136253
66.009497869018190385759 1623.97211589222024486 66.009497869018190385759 106.90125727725441607
68.009497869018190385759 1625.87992985521805167 68.009497869018190385759 106.44151811679077468
70.009497869018190385759 1627.70281292936647333 70.009497869018190385759 106.00402636825452873
72.009497869018218807469 1629.44641203890796533 72.009497869018218807469 105.56724180571174543
74.009497869018190385759 1631.11580773902028341 74.009497869018190385759 105.14335938177120511
76.009497869018190385759 1632.71564848922275814 76.009497869018190385759 104.72832906316976675
78.009497869018190385759 1634.25026758410081129 78.009497869018190385759 104.31902814066506835
80.009497869018190385759 1635.72357247820332304 80.009497869018190385759 103.92121809119647935
82.009497869018218807469 1637.13917657752722334 82.009497869018218807469 103.53361965132404521
84.009497869018190385759 1638.50047134180704234 84.009497869018190385759 103.15921361116538435
86.009497869018190385759 1639.81052107771006376 86.009497869018190385759 102.78624776358300608
88.009497869018190385759 1641.07216531331027909 88.009497869018190385759 102.42833852643566672
91.009497869018218807469 1642.87973572672376577 91.009497869018218807469 101.90403150912737829
94.009497869018190385759 1644.59258452545282125 94.009497869018190385759 101.40039917478085840
97.009497869018190385759 1646.21807270788644928 97.009497869018190385759 100.91362640264328832
99.504748934509109403734 1647.50833039993176499 99.504748934509109403734 100.60139444270598119
nan nan nan nan

