Time Pressure difference Time.1 Pressure.1 difference.1
(hr) (psi) (hr) (psi)
0.000200000000006639311 0.21971941180285595 0.000200000000006639311 0.17515245814568614
0.000399999999999067768 0.43931438300209402 0.000399999999999067768 0.45846652202581695
0.000600000000005707079 0.65880389114984306 0.000600000000005707079 0.67078183013325920
0.000799999999998135536 0.87819702638251596 0.000799999999998135536 0.88692832591125370
0.001007140329434719206 1.10532575956328905 0.001007140329434719206 1.11383093565514080
0.001267914553963578328 1.39112977969517471 0.001267914553963578328 1.40149892707251689
0.001596209851982166583 1.75073139493927576 0.001596209851982166583 1.76326818177278621
0.002009509145210586212 2.20313136709192881 0.002009509145210586212 2.21812272098627128
0.002529822128138903281 2.77219340685861138 0.002529822128138903281 2.78985414295177048
0.003184857364445292660 3.48787303184696285 0.003184857364445292660 3.50824878184734068
0.004009497869020606231 4.38774841059778886 0.004009497869020606231 4.41055140998061201
0.005047658755842121536 5.51892271624614406 0.005047658755842121536 5.54326063347674935
0.006354625877804664924 6.94038089222467836 0.006354625877804664924 6.96431671033194810
0.008000000000009777068 8.72589813677464932 0.008000000000009777068 8.74574503613050069
0.010071403294347192059 10.96761184783923149 0.010071403294347192059 10.97681495533755758
0.012679145539692626699 13.78038136411133863 0.012679145539692626699 13.76775900694448040
0.015962098519750611558 17.30706733240909756 0.015962098519750611558 17.25406467270229882
0.020095091452091651263 21.72485954662107233 0.020095091452091651263 21.60128782246437140
0.025298221281346400247 27.25276009853715209 0.025298221281346400247 27.01022777416172715
0.031848573644282396344 34.16027457431538750 0.031848573644282396344 33.72212488357957483
0.040094978690191851456 42.77725844222115370 0.040094978690191851456 42.02326148336089062
0.050476587558421215363 53.50468108054198524 0.050476587558421215363 52.24792619489595324
0.063546258777947173257 66.82576838467306857 0.063546258777947173257 64.77809465797651001
0.079999999999998294697 83.31651800691288656 0.079999999999998294697 80.03734248085045522
0.100714032943542974863 103.65389127279557613 0.100714032943542974863 98.47541183367839324
0.126791455396897845276 128.61901252455541567 0.126791455396897845276 120.53852221601542283
0.159620985197506115583 159.09140363468074497 0.159620985197506115583 146.61907400328971107
0.200950914520774404082 196.02865000256247185 0.200950914520774404082 176.97718606721551282
0.252982212813464002465 240.42405391703789519 0.252982212813464002465 211.62634213747799095
0.318485736442795541734 293.23316510589040718 0.318485736442795541734 250.17802410513982636
0.400949786901819038576 355.25951739185723000 0.400949786901819038576 291.64890957012335093
0.504765875584169521062 426.99237302250287485 0.504765875584169521062 334.25421740609397148
0.635462587779443310865 508.39810708022463359 0.635462587779443310865 375.24717445798614790
0.799999999999997157829 598.68625166843128227 0.799999999999997157829 410.91476234606108164
1.007140329435330272645 696.10310998108434433 1.007140329435330272645 436.87991261677950661
1.267914553968893187630 797.84308130401620929 1.267914553968893187630 448.83552211767170093
1.596209851975103788391 900.18691584047860488 1.596209851975103788391 443.68265491237508513
2.009509145207687197399 998.94091729951651359 2.009509145207687197399 420.76477111477811377
2.529822128134711078928 1090.13975839042223015 2.529822128134711078928 382.62776619995901228
3.184857364427983839050 1170.82129864090256888 3.184857364427983839050 334.75044016759414944
4.009497869018190385759 1239.58279867291139453 4.009497869018190385759 284.10290543762175730
5.009497869018190385759 1294.97383455668864372 5.009497869018190385759 238.37346050484165971
6.009497869018190385759 1333.08905780983195655 6.009497869018190385759 206.29668314855723565
7.009497869018204596614 1361.13537701593054408 7.009497869018204596614 183.98118027977233169
8.009497869018190385759 1382.88863052608371618 8.009497869018190385759 168.27522151749661816
9.009497869018204596614 1400.46565707914533050 9.009497869018204596614 157.26814583982206841
10.009497869018190385759 1415.12496302894101063 10.009497869018190385759 149.41545720776042572
11.009497869018190385759 1427.65553059535568536 11.009497869018190385759 143.04580809180245637
12.009497869018190385759 1438.57430301931663053 12.009497869018190385759 138.18896476307631360
13.009497869018190385759 1448.23458649815688659 13.009497869018190385759 134.40696231313120279
14.009497869018204596614 1456.88639546577974215 14.009497869018204596614 131.40319303072618595
15.009497869018190385759 1464.71226499263343612 15.009497869018190385759 128.97231988835108041
16.009497869018190385759 1471.84917148068461756 16.009497869018190385759 126.97058963857537606
17.009497869018190385759 1478.40244522928742299 17.009497869018190385759 125.33365146689220637
18.009497869018190385759 1484.45479873088925160 18.009497869018190385759 123.90047190968041946
19.009497869018204596614 1490.07216198065475510 19.009497869018204596614 122.71509270038397688
20.009497869018190385759 1495.30821031415507605 20.009497869018190385759 121.62785674712105788
21.009497869018204596614 1500.20728873341636245 21.009497869018204596614 120.67010000806448033
22.009497869018190385759 1504.80617289308338513 22.009497869018190385759 119.81739675251294841
23.009497869018190385759 1509.13599067138466125 23.009497869018190385759 119.06417932409895855
24.009497869018190385759 1513.22329361035622242 24.009497869018190385759 118.36628543485555554
25.009497869018190385759 1517.09074577116621185 25.009497869018190385759 117.72842195393903353
26.009497869018204596614 1520.75816590229396752 26.009497869018204596614 117.15416412159731863
27.009497869018190385759 1524.24261776317484873 27.009497869018190385759 116.60706730242210938
28.009497869018190385759 1527.55926344979275200 28.009497869018190385759 116.09686668285408473
29.009497869018190385759 1530.72131015810919052 29.009497869018190385759 115.62213101629515677
30.009497869018190385759 1533.74061342783829787 30.009497869018190385759 115.17021239469758598
31.009497869018190385759 1536.62763829164896379 31.009497869018190385759 114.74245000038703779
32.009497869018190385759 1539.39180721103980432 32.009497869018190385759 114.33534014943320756
33.009497869018190385759 1542.04157977933073198 33.009497869018190385759 113.94883882215673054
34.009497869018190385759 1544.58455406631856022 34.009497869018190385759 113.57529763839688997
35.009497869018190385759 1547.02767595915861421 35.009497869018190385759 113.21488085594216955
36.009497869018190385759 1549.37718303831184130 36.009497869018190385759 112.86775514138861354
37.009497869018190385759 1551.63879470317488085 37.009497869018190385759 112.53188568937756031
38.009497869018190385759 1553.81774092149112221 38.009497869018190385759 112.20602381012925264
39.009497869018190385759 1555.91878043038536816 39.009497869018190385759 111.88668830154931300
40.009497869018190385759 1557.94630948206463472 40.009497869018190385759 111.57156269698778317
41.009497869018190385759 1559.90437634320960569 41.009497869018190385759 111.27252698883063431
42.009497869018190385759 1561.79669708534947858 42.009497869018190385759 110.97329570426104794
43.009497869018190385759 1563.62671993744106658 43.009497869018190385759 110.68716595637988576
44.009497869018218807469 1565.39764368735814060 44.009497869018218807469 110.39897192282451499
46.009497869018190385759 1568.77382198235886790 46.009497869018190385759 109.83966800456813928
48.009497869018190385759 1571.94655535025708559 48.009497869018190385759 109.30148897644680517
50.009497869018190385759 1574.93439875955027674 50.009497869018190385759 108.76870416215299997
52.009497869018190385759 1577.75357950040643118 52.009497869018190385759 108.25100983026595713
54.009497869018190385759 1580.41842128538041834 54.009497869018190385759 107.75090896102510385
56.009497869018190385759 1582.94155003835271600 56.009497869018190385759 107.26084160654112054
58.009497869018218807469 1585.33425519326260655 58.009497869018218807469 106.75699754816588438
60.009497869018190385759 1587.60654469670203071 60.009497869018190385759 106.28597167761118669
62.009497869018190385759 1589.76746469457725652 62.009497869018190385759 105.82336547486855238
64.009497869018190385759 1591.82509498727290520 64.009497869018190385759 105.36870316430943717
66.009497869018190385759 1593.78676057823827250 66.009497869018190385759 104.91424506020506158
68.009497869018190385759 1595.65911331515803795 68.009497869018190385759 104.46305123729651143
70.009497869018190385759 1597.44811380428541270 70.009497869018190385759 104.03369130564756517
72.009497869018218807469 1599.15930400844490578 72.009497869018218807469 103.60502541527098685
74.009497869018190385759 1600.79767004870382152 74.009497869018190385759 103.18902184679404854
76.009497869018190385759 1602.36777398198796618 76.009497869018190385759 102.78170584638222351
78.009497869018190385759 1603.87386855837416988 78.009497869018190385759 102.38001274771589522
80.009497869018190385759 1605.31978860314370650 80.009497869018190385759 101.98959693708502527
82.009497869018218807469 1606.70908035861407370 82.009497869018218807469 101.60920292918046925
84.009497869018190385759 1608.04507224623421280 84.009497869018190385759 101.24175610909911427
86.009497869018190385759 1609.33077161529899968 86.009497869018190385759 100.87572271221527842
88.009497869018190385759 1610.56896521454973481 88.009497869018190385759 100.52446606311903565
91.009497869018218807469 1612.34293766488872279 91.009497869018218807469 100.00990452940382625
94.009497869018190385759 1614.02394912535123694 94.009497869018190385759 99.51563339086300175
97.009497869018190385759 1615.61922377279552165 97.009497869018190385759 99.03790843976887004
99.504748934509109403734 1616.88549897985876669 99.504748934509109403734 98.73148004786015974
nan nan nan nan

