Time Pressure difference Time.1 Pressure.1 difference.1
(hr) (psi) (hr) (psi)
0.000200000000006639311 0.67247456339661971 0.000200000000006639311 0.53607267493073629
0.000399999999999067768 1.34456826312762101 0.000399999999999067768 1.40318541589719725
0.000600000000005707079 2.01633918200406503 0.000600000000005707079 2.05299893465027816
0.000799999999998135536 2.68781514135254884 0.000799999999998135536 2.71453820960717040
0.001007140329434719206 3.38296671866340004 0.001007140329434719206 3.40899771215664371
0.001267914553963578328 4.25770023482462445 0.001267914553963578328 4.28943611013103698
0.001596209851982166583 5.35829911784445034 0.001596209851982166583 5.39666928360761844
0.002009509145210586212 6.74291721443287262 0.002009509145210586212 6.78879984301858830
0.002529822128138903281 8.48459194220362889 0.002529822128138903281 8.53864449812511594
0.003184857364445292660 10.67500533989524847 0.003184857364445292660 10.73736748383580064
0.004009497869020606231 13.42916937789020260 0.004009497869020606231 13.49896037600126775
0.005047658755842121536 16.89124831335941224 0.005047658755842121536 16.96573709033792809
0.006354625877804664924 21.24177182165735189 0.006354625877804664924 21.31502993162202486
0.008000000000009777068 26.70653672164361936 0.008000000000009777068 26.76728026209638145
0.010071403294347192059 33.56753929187159002 0.010071403294347192059 33.59570637845737195
0.012679145539692626699 42.17631872046197117 0.012679145539692626699 42.13768665761795518
0.015962098519750611558 52.97011516888844795 0.015962098519750611558 52.80789490736157887
0.020095091452091651263 66.49123679420388555 0.020095091452091651263 66.11303242633034927
0.025298221281346400247 83.40996272582583515 0.025298221281346400247 82.66766682394953136
0.031848573644282396344 104.55114339411677804 0.031848573644282396344 103.21013979519808856
0.040094978690191851456 130.92433644437383577 0.040094978690191851456 128.61664878240759435
0.050476587558421215363 163.75675118590123702 0.050476587558421215363 159.91031956619670495
0.063546258777947173257 204.52735172278724463 0.063546258777947173257 198.26022910471596106
0.079999999999998294697 254.99903996055152788 0.079999999999998294697 244.96277547169381705
0.100714032943542974863 317.24372783491980954 0.100714032943542974863 301.39444227883387839
0.126791455396897845276 393.65212924182105780 0.126791455396897845276 368.92093163083507079
0.159620985197506115583 486.91611415462898549 0.159620985197506115583 448.74322649491705306
0.200950914520774404082 599.96647425026696965 0.200950914520774404082 541.65744826632624154
0.252982212813464002465 735.84331653396441197 0.252982212813464002465 647.70486532985682970
0.318485736442795541734 897.47120229378583645 0.318485736442795541734 765.69637680664004620
0.400949786901819038576 1087.30943201750255867 0.400949786901819038576 892.62242019946847904
0.504765875584169521062 1306.85544470523632299 0.504765875584169521062 1023.02048357622697949
0.635462587779443310865 1556.00632773038478263 0.635462587779443310865 1148.48377637141220475
0.799999999999997157829 1832.34277025792607674 0.799999999999997157829 1257.64821202885377716
1.007140329435330272645 2130.49739721483410904 1.007140329435330272645 1337.11730831196155123
1.267914553968893187630 2441.88337005168614269 1.267914553968893187630 1373.70871920863169180
1.596209851975103788391 2755.11753029964665984 1.596209851975103788391 1357.93782261060255223
2.009509145207687197399 3057.36462567427724935 2.009509145207687197399 1287.79520856341173385
2.529822128134711078928 3336.48835143735232123 2.529822128134711078928 1171.07286018775312186
3.184857364427983839050 3583.42276250700479068 3.184857364427983839050 1024.53922596748520846
4.009497869018190385759 3793.87462624133468125 4.009497869018190385759 869.52707421817558497
5.009497869018190385759 3963.40476637047095210 5.009497869018190385759 729.56725790875782423
6.009497869018190385759 4080.06044966039416977 6.009497869018190385759 631.39287872740248986
7.009497869018204596614 4165.89918420027242973 7.009497869018204596614 563.09391540172748591
8.009497869018190385759 4232.47732373134749650 8.009497869018190385759 515.02416282627746114
9.009497869018204596614 4286.27367772708203120 9.009497869018204596614 481.33584029763721901
10.009497869018190385759 4331.14003836130450509 10.009497869018190385759 457.30185387829709498
11.009497869018190385759 4369.49116939790656033 11.009497869018190385759 437.80686719006206431
12.009497869018190385759 4402.90923045306044514 12.009497869018190385759 422.94198306274870447
13.009497869018190385759 4432.47555261557045014 13.009497869018190385759 411.36676344321978149
14.009497869018204596614 4458.95533157708268845 14.009497869018204596614 402.17340897282866763
15.009497869018190385759 4482.90723528048420121 15.009497869018190385759 394.73346390071088763
16.009497869018190385759 4504.75049453179235570 16.009497869018190385759 388.60695616654885498
17.009497869018190385759 4524.80748388357642398 17.009497869018190385759 383.59693327745799252
18.009497869018190385759 4543.33135369150932092 18.009497869018190385759 379.21053523871887592
19.009497869018204596614 4560.52388969836738397 19.009497869018204596614 375.58255644662972372
20.009497869018190385759 4576.54937096150479192 20.009497869018190385759 372.25495549876444557
21.009497869018204596614 4591.54352006288081611 21.009497869018204596614 369.32363941862161028
22.009497869018190385759 4605.61889279398292274 22.009497869018190385759 366.71385066678203657
23.009497869018190385759 4618.87075932757124974 23.009497869018190385759 364.40854884042408912
24.009497869018190385759 4631.38038347412111762 24.009497869018190385759 362.27257057334583124
25.009497869018190385759 4643.21713099659973523 25.009497869018190385759 360.32032173781340134
26.009497869018204596614 4654.44165927671656391 26.009497869018204596614 358.56274473579782125
27.009497869018190385759 4665.10619376001977798 27.009497869018190385759 356.88829689529194411
28.009497869018190385759 4675.25713964936585398 28.009497869018190385759 355.32677378691704462
29.009497869018190385759 4684.93491896875912062 29.009497869018190385759 353.87379492866091368
30.009497869018190385759 4694.17581685489949450 30.009497869018190385759 352.49065005649867999
31.009497869018190385759 4703.01186265019896382 31.009497869018190385759 351.18143787997240679
32.009497869018190385759 4711.47189479742519325 32.009497869018190385759 349.93543500281072056
33.009497869018190385759 4719.58180477916357631 33.009497869018190385759 348.75250669811606485
34.009497869018190385759 4727.36484729388394044 34.009497869018190385759 347.60924428721472168
35.009497869018190385759 4734.84228096590868518 35.009497869018190385759 346.50615049848966009
36.009497869018190385759 4742.03319657180327340 36.009497869018190385759 345.44373543273485438
37.009497869018190385759 4748.95509894001952489 37.009497869018190385759 344.41577135233740137
38.009497869018190385759 4755.62399494153396518 38.009497869018190385759 343.41843650978950109
39.009497869018190385759 4762.05444919602814480 39.009497869018190385759 342.44107631686307514
40.009497869018190385759 4768.25991689965121623 40.009497869018190385759 341.47660098168989862
41.009497869018190385759 4774.25278820194398577 41.009497869018190385759 340.56137048096644548
42.009497869018190385759 4780.04443653394810099 42.009497869018190385759 339.64554139788987186
43.009497869018190385759 4785.64541556610674888 43.009497869018190385759 338.76981095740512728
44.009497869018218807469 4791.06551552797463955 44.009497869018218807469 337.88776255167499585
46.009497869018190385759 4801.39866727934077062 46.009497869018190385759 336.17595358973881048
48.009497869018190385759 4811.10915425381699606 48.009497869018190385759 334.52879959457959558
50.009497869018190385759 4820.25376590044197656 50.009497869018190385759 332.89815516295311681
52.009497869018190385759 4828.88216756185011036 52.009497869018190385759 331.31369675323821866
54.009497869018190385759 4837.03819847949762334 54.009497869018190385759 329.78308500192531483
56.009497869018190385759 4844.76050163253421488 56.009497869018190385759 328.28318188668640687
58.009497869018218807469 4852.08362953089545044 58.009497869018218807469 326.74111370802285137
60.009497869018190385759 4859.03821255657203437 60.009497869018190385759 325.29948907390087243
62.009497869018190385759 4865.65193739855385502 62.009497869018190385759 323.88363372611280511
64.009497869018190385759 4871.94953314286522073 64.009497869018190385759 322.49209150288646697
66.009497869018190385759 4877.95341873945653788 66.009497869018190385759 321.10117427517309352
68.009497869018190385759 4883.68395287366547564 68.009497869018190385759 319.72024772627116818
70.009497869018190385759 4889.15937861311613233 70.009497869018190385759 318.40614611728494765
72.009497869018218807469 4894.39665772281568934 72.009497869018218807469 317.09416869522334537
74.009497869018190385759 4899.41105075512314215 74.009497869018190385759 315.82094565230909211
76.009497869018190385759 4904.21652036911473260 76.009497869018190385759 314.57431183286678333
78.009497869018190385759 4908.82608255744798953 78.009497869018190385759 313.34488750058500273
80.009497869018190385759 4913.25147420962184697 80.009497869018190385759 312.14997850441170613
82.009497869018218807469 4917.50354897636407259 82.009497869018218807469 310.98574229840085081
84.009497869018190385759 4921.59249384453505627 84.009497869018190385759 309.86113233390938149
86.009497869018190385759 4925.52751312561213126 86.009497869018190385759 308.74084830102253818
88.009497869018190385759 4929.31713595968267327 88.009497869018190385759 307.66579007197032070
91.009497869018218807469 4934.74656679253803304 91.009497869018218807469 306.09091992332685095
94.009497869018190385759 4939.89148065637891705 94.009497869018190385759 304.57815068112614654
97.009497869018190385759 4944.77398791067753336 97.009497869018190385759 303.11602280050476566
99.504748934509109403734 4948.64955748380998557 99.504748934509109403734 302.17816620708714481
nan nan nan nan

