Time Pressure difference Time.1 Pressure.1 difference.1
(hr) (psi) (hr) (psi)
0.000200000000006639311 0.55678896400041911 0.000200000000006639311 0.44385225189190913
0.000399999999999067768 1.11326258419848823 0.000399999999999067768 1.16179584558814963
0.000600000000005707079 1.66946895143653395 0.000600000000005707079 1.69982213772405455
0.000799999999998135536 2.22543110094660301 0.000799999999998135536 2.24755700770692712
0.001007140329434719206 2.80099595889333441 0.001007140329434719206 2.82254884830791397
0.001267914553963578328 3.52524932809118097 0.001267914553963578328 3.55152569019512798
0.001596209851982166583 4.43651251217566500 0.001596209851982166583 4.46828186971967423
0.002009509145210586212 5.58293516888068275 0.002009509145210586212 5.62092462249930147
0.002529822128138903281 7.02499011056216283 0.002529822128138903281 7.06974402134369040
0.003184857364445292660 8.83858734206673446 0.003184857364445292660 8.89022134490860338
0.004009497869020606231 11.11895335867394330 0.004009497869020606231 11.17673823210996176
0.005047658755842121536 13.98545188321466171 0.005047658755842121536 14.04712637801494424
0.006354625877804664924 17.58755612461481022 0.006354625877804664924 17.64821166368209404
0.008000000000009777068 22.11221914205393801 0.008000000000009777068 22.16251298928524704
0.010071403294347192059 27.79292547804714530 0.010071403294347192059 27.81624698909403648
0.012679145539692626699 34.92073913860031809 0.012679145539692626699 34.88875293805248390
0.015962098519750611558 43.85768199008214197 0.015962098519750611558 43.72336843196151079
0.020095091452091651263 55.05276907836930889 0.020095091452091651263 54.73962709556312944
0.025298221281346400247 69.06097161333846657 0.025298221281346400247 68.44637265497802048
0.031848573644282396344 86.56524125082192711 0.031848573644282396344 85.45493010270733691
0.040094978690191851456 108.40146173426497000 0.040094978690191851456 106.49076489533497636
0.050476587558421215363 135.58572592000979284 0.050476587558421215363 132.40099478933859700
0.063546258777947173257 169.34257215661466489 0.063546258777947173257 164.15358078100865669
0.079999999999998294697 211.13163085842697342 0.079999999999998294697 202.82190196851880160
0.100714032943542974863 262.66838356628881002 0.100714032943542974863 249.54564589670778219
0.126791455396897845276 325.93227037472564689 0.126791455396897845276 305.45557334285729212
0.159620985197506115583 403.15207966515691851 0.159620985197506115583 371.54606253106368285
0.200950914520774404082 496.75441989285712907 0.200950914520774404082 448.47627832942112036
0.252982212813464002465 609.25640935794820052 0.252982212813464002465 536.28038973474531304
0.318485736442795541734 743.07949793879049594 0.318485736442795541734 633.97385653916114734
0.400949786901819038576 900.25991339072925257 0.400949786901819038576 739.06485038792629894
0.504765875584169521062 1082.03749072747882565 0.504765875584169521062 847.03057365407892121
0.635462587779443310865 1288.32702135102385910 0.635462587779443310865 950.91045345603299666
0.799999999999997157829 1517.12538775068401264 0.799999999999997157829 1041.29536367240484651
1.007140329435330272645 1763.98856279297501715 1.007140329435330272645 1107.09341492661178563
1.267914553968893187630 2021.80689921358657557 1.267914553968893187630 1137.39001627546372220
1.596209851975103788391 2281.15547991393987104 1.596209851975103788391 1124.33218233476850401
2.009509145207687197399 2531.40709724763837585 2.009509145207687197399 1066.25618134767637457
2.529822128134711078928 2762.51325137572848689 2.529822128134711078928 969.61354389307791735
3.184857364427983839050 2966.96760905592373092 3.184857364427983839050 848.28804724288056605
4.009497869018190385759 3141.21550118249115258 4.009497869018190385759 719.94258991579135909
5.009497869018190385759 3281.58142166069956147 5.009497869018190385759 604.06001923386008912
6.009497869018190385759 3378.16886240446046941 6.009497869018190385759 522.77454934236664030
7.009497869018204596614 3449.24078493809656720 7.009497869018204596614 466.22503639078666993
8.009497869018190385759 3504.36550690132571617 8.009497869018190385759 426.42470907274707770
9.009497869018204596614 3548.90729009828919516 9.009497869018204596614 398.53177866227633785
10.009497869018190385759 3586.05530403924876737 10.009497869018190385759 378.63235178784748314
11.009497869018190385759 3617.80890139504890612 11.009497869018190385759 362.49108186899940165
12.009497869018190385759 3645.47806333304151849 12.009497869018190385759 350.18339934279566705
13.009497869018190385759 3669.95809987601069224 13.009497869018190385759 340.59946131623024712
14.009497869018204596614 3691.88257032805495328 14.009497869018204596614 332.98763688468119426
15.009497869018190385759 3711.71403515178690213 15.009497869018190385759 326.82758335343510225
16.009497869018190385759 3729.79960500218930974 16.009497869018190385759 321.75501692502621154
17.009497869018190385759 3746.40619643330774124 17.009497869018190385759 317.60686678542009531
18.009497869018190385759 3761.74341042032119731 18.009497869018190385759 313.97505949839472805
19.009497869018204596614 3775.97831956461368463 19.009497869018204596614 310.97120082029118748
20.009497869018190385759 3789.24694204609750159 20.009497869018190385759 308.21604607509084417
21.009497869018204596614 3801.66165213127123934 21.009497869018204596614 305.78900342952704250
22.009497869018190385759 3813.31564267224530340 22.009497869018190385759 303.62817586148167948
23.009497869018190385759 3824.28779454225877998 23.009497869018190385759 301.71945442356894773
24.009497869018190385759 3834.64539176260768727 24.009497869018190385759 299.95092786332713786
25.009497869018190385759 3844.44586712466025347 25.009497869018190385759 298.33452381509550833
26.009497869018204596614 3853.73944313876700107 26.009497869018204596614 296.87930226268412071
27.009497869018190385759 3862.56936092259093130 27.009497869018190385759 295.49290918681964513
28.009497869018190385759 3870.97404260572466228 28.009497869018190385759 294.20001443495982585
29.009497869018190385759 3878.98695642339089318 29.009497869018190385759 292.99699109811160724
30.009497869018190385759 3886.63814539099894318 30.009497869018190385759 291.85178822747229788
31.009497869018190385759 3893.95412885270206971 31.009497869018190385759 290.76779943279893814
32.009497869018190385759 3900.95878418252141273 32.009497869018190385759 289.73614606049551412
33.009497869018190385759 3907.67354875898536193 33.009497869018190385759 288.75671656069260962
34.009497869018190385759 3914.11767678169417195 34.009497869018190385759 287.81012924275574960
35.009497869018190385759 3920.30876976014042157 35.009497869018190385759 286.89680035085348209
36.009497869018190385759 3926.26263429026766971 36.009497869018190385759 286.01715223329159699
37.009497869018190385759 3931.99376385009145451 37.009497869018190385759 285.16602850830901161
38.009497869018190385759 3937.51541165332491801 38.009497869018190385759 284.34026488248656506
39.009497869018190385759 3942.83963677245355939 39.009497869018190385759 283.53103967324426549
40.009497869018190385759 3947.97757971023156642 40.009497869018190385759 282.73248274350311249
41.009497869018190385759 3952.93949914245104083 41.009497869018190385759 281.97469907396850886
42.009497869018190385759 3957.73481193219276975 42.009497869018190385759 281.21641979602514994
43.009497869018190385759 3962.37225620510571389 43.009497869018190385759 280.49134100309902351
44.009497869018218807469 3966.85993798046411030 44.009497869018218807469 279.76103112261210981
46.009497869018190385759 3975.41548070529643155 46.009497869018190385759 278.34370414793966120
48.009497869018190385759 3983.45547548985541653 48.009497869018190385759 276.97990956531401707
50.009497869018190385759 3991.02694231113355272 50.009497869018190385759 275.62978441091041759
52.009497869018190385759 3998.17100259762037240 52.009497869018190385759 274.31789991078761659
54.009497869018190385759 4004.92395393908873302 54.009497869018190385759 273.05059884441590157
56.009497869018190385759 4011.31779157446226236 56.009497869018190385759 271.80872361657577585
58.009497869018218807469 4017.38112395565394763 58.009497869018218807469 270.53193696864764206
60.009497869018190385759 4023.13931212914258140 60.009497869018190385759 269.33831459212836990
62.009497869018190385759 4028.61527985103020910 62.009497869018190385759 268.16602841926913925
64.009497869018190385759 4033.82950207002068055 64.009497869018190385759 267.01387279137503583
66.009497869018190385759 4038.80054101076302686 66.009497869018190385759 265.86223464120149629
68.009497869018190385759 4043.54525306000277851 68.009497869018190385759 264.71886847633089701
70.009497869018190385759 4048.07874293585928172 70.009497869018190385759 263.63083137681144308
72.009497869018218807469 4052.41505447594545331 72.009497869018218807469 262.54455304097081125
74.009497869018190385759 4056.56682296432882140 74.009497869018190385759 261.49036217994404296
76.009497869018190385759 4060.54560906799270015 76.009497869018190385759 260.45818640617312667
78.009497869018190385759 4064.36218964224326555 78.009497869018190385759 259.44025957659823689
80.009497869018190385759 4068.02628248296696256 80.009497869018190385759 258.45091042011318905
82.009497869018218807469 4071.54687409057896730 82.009497869018218807469 257.48695742280960985
84.009497869018190385759 4074.93239898761657969 84.009497869018190385759 256.55581377646706187
86.009497869018190385759 4078.19047807058723265 86.009497869018190385759 255.62825187300009588
88.009497869018190385759 4081.32817321414358958 88.009497869018190385759 254.73813559176753074
91.009497869018218807469 4085.82358067352515718 91.009497869018218807469 253.43418988701196781
94.009497869018190385759 4090.08341653356092138 94.009497869018190385759 252.18166188820964635
97.009497869018190385759 4094.12598751515270123 97.009497869018190385759 250.97106343259613936
99.504748934509109403734 4097.33484400577890483 99.504748934509109403734 250.19454603037286233
nan nan nan nan

