Time Pressure difference Time.1 Pressure.1 difference.1
(hr) (psi) (hr) (psi)
0.000200000000006639311 0.79148924478983329 0.000200000000006639311 0.63094692309298295
0.000399999999999067768 1.58253022058708859 0.000399999999999067768 1.65152144866118156
0.000600000000005707079 2.37319128971023030 0.000600000000005707079 2.41633909263912683
0.000799999999998135536 3.16350519730974478 0.000799999999998135536 3.19495771947576657
0.001007140329434719206 3.98168483842684795 0.001007140329434719206 4.01232280230317873
0.001267914553963578328 5.01122886549284541 0.001267914553963578328 5.04858136229531684
0.001596209851982166583 6.30661195676989195 0.001596209851982166583 6.35177288206787782
0.002009509145210586212 7.93628003827433304 0.002009509145210586212 7.99028298355281841
0.002529822128138903281 9.98619670425204298 0.002529822128138903281 10.04981549222399018
0.003184857364445292660 12.56426989881235379 0.003184857364445292660 12.63766890733644388
0.004009497869020606231 15.80586643363067267 0.004009497869020606231 15.88800905640743366
0.005047658755842121536 19.88066478465940889 0.005047658755842121536 19.96833660013783529
0.006354625877804664924 25.00114480494571723 0.006354625877804664924 25.08736814971849327
0.008000000000009777068 31.43306487906322388 0.008000000000009777068 31.50455882333373836
0.010071403294347192059 39.50832904278450997 0.010071403294347192059 39.54148114593188268
0.012679145539692626699 49.64069195935561396 0.012679145539692626699 49.59522278637954429
0.015962098519750611558 62.34477664061003566 0.015962098519750611558 62.15384660507532288
0.020095091452091651263 78.25886904862363735 0.020095091452091651263 77.81372999683188141
0.025298221281346400247 98.17187444586680556 0.025298221281346400247 97.29820686828713860
0.031848573644282396344 123.05462545520427398 0.031848573644282396344 121.47629077380368301
0.040094978690191851456 154.09535143391028100 0.040094978690191851456 151.37924875256140922
0.050476587558421215363 192.73845343786146600 0.050476587558421215363 188.21127958843200645
0.063546258777947173257 240.72464293115183409 0.063546258777947173257 233.34836371111990161
0.079999999999998294697 300.12882054762940243 0.079999999999998294697 288.31633598215449865
0.100714032943542974863 373.38958560768406869 0.100714032943542974863 354.73529035540968835
0.126791455396897845276 463.32076102595527800 0.126791455396897845276 434.21263116451007136
0.159620985197506115583 573.09062445674771880 0.159620985197506115583 528.16189158003237480
0.200950914520774404082 706.14865966832155664 0.200950914520774404082 637.52009071940130980
0.252982212813464002465 866.07301240569324818 0.252982212813464002465 762.33580065432408901
0.318485736442795541734 1056.30583339280974542 0.318485736442795541734 901.20947319692413657
0.400949786901819038576 1279.74167060475861035 0.400949786901819038576 1050.59891288328549308
0.504765875584169521062 1538.14298009242520493 0.504765875584169521062 1204.07485133786121878
0.635462587779443310865 1831.38863573217304292 0.635462587779443310865 1351.74266253615451205
0.799999999999997157829 2156.63115657832668148 0.799999999999997157829 1480.22704163297021296
1.007140329435330272645 2507.55324845458790151 1.007140329435330272645 1573.76059431271710309
1.267914553968893187630 2874.04837242469466219 1.267914553968893187630 1616.82796035570390814
1.596209851975103788391 3242.71877637990610310 1.596209851975103788391 1598.26592735480562624
2.009509145207687197399 3598.45762254484907317 2.009509145207687197399 1515.70945958391666863
2.529822128134711078928 3926.98072056549744957 2.529822128134711078928 1378.32956687939781659
3.184857364427983839050 4217.61763260416046251 3.184857364427983839050 1205.86238105826510036
4.009497869018190385759 4465.31530885582833434 4.009497869018190385759 1023.41614799688727544
5.009497869018190385759 4664.84892675534410955 5.009497869018190385759 858.68621568221374218
6.009497869018190385759 4802.15035597405403678 6.009497869018190385759 743.13691543287097829
7.009497869018204596614 4903.18084675056798005 7.009497869018204596614 662.75038805327073987
8.009497869018190385759 4981.54199859964228381 8.009497869018190385759 606.17324114825476045
9.009497869018204596614 5044.85924197828535398 9.009497869018204596614 566.52275262754085361
10.009497869018190385759 5097.66606000198044057 10.009497869018190385759 538.23522653250063286
11.009497869018190385759 5142.80458180372443167 11.009497869018190385759 515.29001323978843629
12.009497869018190385759 5182.13697792185666913 12.009497869018190385759 497.79433897608174675
13.009497869018190385759 5216.93595363540589460 13.009497869018190385759 484.17053469616581651
14.009497869018204596614 5248.10212912104725547 14.009497869018204596614 473.35013853113872528
15.009497869018190385759 5276.29304548482741666 15.009497869018190385759 464.59347050690104197
16.009497869018190385759 5302.00212908382945898 16.009497869018190385759 457.38269222077724407
17.009497869018190385759 5325.60880838277353178 17.009497869018190385759 451.48599448869128992
18.009497869018190385759 5347.41103633740749501 18.009497869018190385759 446.32329085646244948
19.009497869018204596614 5367.64631077122248826 19.009497869018204596614 442.05323165933771179
20.009497869018190385759 5386.50798488167220057 20.009497869018190385759 438.13671123678835784
21.009497869018204596614 5404.15580146014781349 21.009497869018204596614 434.68661025632320616
22.009497869018190385759 5420.72223644440236967 22.009497869018190385759 431.61494057439324479
23.009497869018190385759 5436.31942094123769493 23.009497869018190385759 428.90164597431100901
24.009497869018190385759 5451.04300084639635315 24.009497869018190385759 426.38764185055919143
25.009497869018190385759 5464.97461828931500349 25.009497869018190385759 424.08988362953039086
26.009497869018204596614 5478.18566580712649738 26.009497869018204596614 422.02125030166303077
27.009497869018190385759 5490.73761171507339895 27.009497869018190385759 420.05045835077055472
28.009497869018190385759 5502.68507401800343359 28.009497869018190385759 418.21257657346302494
29.009497869018190385759 5514.07562863773455319 29.009497869018190385759 416.50244922915413781
30.009497869018190385759 5524.95198246164454758 30.009497869018190385759 414.87451510362654972
31.009497869018190385759 5535.35183339150898973 31.009497869018190385759 413.33359829684872011
32.009497869018190385759 5545.30912370340411144 32.009497869018190385759 411.86707758375371213
33.009497869018190385759 5554.85432715963452210 33.009497869018190385759 410.47479439345090668
34.009497869018190385759 5564.01481407980736549 34.009497869018190385759 409.12919717467968894
35.009497869018190385759 5572.81560544378680788 35.009497869018190385759 407.83087762879165439
36.009497869018190385759 5581.27917071755564393 36.009497869018190385759 406.58043613432039365
37.009497869018190385759 5589.42611273757302115 37.009497869018190385759 405.37054276741685044
38.009497869018190385759 5597.27527127400844620 38.009497869018190385759 404.19669940694285515
39.009497869018190385759 5604.84378859582011501 39.009497869018190385759 403.04636581353560132
40.009497869018190385759 5612.14750120243752463 40.009497869018190385759 401.91119744255826163
41.009497869018190385759 5619.20099205451515445 41.009497869018190385759 400.83398926658310302
42.009497869018190385759 5626.01764745517903066 42.009497869018190385759 399.75607657103125803
43.009497869018190385759 5632.60988886555423960 43.009497869018190385759 398.72535918377752751
44.009497869018218807469 5638.98923919196022325 44.009497869018218807469 397.68720567653832632
46.009497869018190385759 5651.15115418645200407 46.009497869018190385759 395.67244042554654015
48.009497869018190385759 5662.58020506853972620 48.009497869018190385759 393.73377279015494423
50.009497869018190385759 5673.34323189519818698 50.009497869018190385759 391.81453658411936658
52.009497869018190385759 5683.49868979123675672 52.009497869018190385759 389.94966041129896439
54.009497869018190385759 5693.09817667574498046 54.009497869018190385759 388.14816068914723246
56.009497869018190385759 5702.18717456997455884 56.009497869018190385759 386.38280442356284539
58.009497869018218807469 5710.80635109391187143 58.009497869018218807469 384.56782071327938866
60.009497869018190385759 5718.99175760061916662 60.009497869018190385759 382.87105706594024923
62.009497869018190385759 5726.77598077478342020 62.009497869018190385759 381.20462335833326506
64.009497869018190385759 5734.18812626097223983 64.009497869018190385759 379.56680571688735881
66.009497869018190385759 5741.25458071933644533 66.009497869018190385759 377.92972368278418571
68.009497869018190385759 5747.99930591937572899 68.009497869018190385759 376.30440047980675899
70.009497869018190385759 5754.44377359043664910 70.009497869018190385759 374.75772890784406854
72.009497869018218807469 5760.60794739405719156 72.009497869018218807469 373.21355746182848634
74.009497869018190385759 5766.50978869817208761 74.009497869018190385759 371.71499915265582104
76.009497869018190385759 5772.16573127602532622 76.009497869018190385759 370.24773583299054280
78.009497869018190385759 5777.59109469323357189 78.009497869018190385759 368.80072773893112981
80.009497869018190385759 5782.79969303632424271 80.009497869018190385759 367.39434351199946605
82.009497869018218807469 5787.80430083727969759 82.009497869018218807469 366.02406055170695254
84.009497869018190385759 5792.61690797791197838 84.009497869018190385759 364.70041689300478538
86.009497869018190385759 5797.24834775056569924 86.009497869018190385759 363.38186477013914555
88.009497869018190385759 5801.70865878423046524 88.009497869018190385759 362.11654252282647803
91.009497869018218807469 5808.09899136102012562 91.009497869018218807469 360.26295154342062688
94.009497869018190385759 5814.15445309927781636 94.009497869018190385759 358.48245210117693205
97.009497869018190385759 5819.90106745427601709 97.009497869018190385759 356.76155653871290951
99.504748934509109403734 5824.46253609789982875 99.504748934509109403734 355.65771789967806171
nan nan nan nan

