Time Pressure difference Time.1 Pressure.1 difference.1
(hr) (psi) (hr) (psi)
0.000200000000006639311 0.50518819304671803 0.000200000000006639311 0.40271796247890712
0.000399999999999067768 1.01009026697829940 0.000399999999999067768 1.05412567753663211
0.000600000000005707079 1.51474985578770727 0.000600000000005707079 1.54229004125336489
0.000799999999998135536 2.01918785990222416 0.000799999999998135536 2.03926323419746591
0.001007140329434719206 2.54141187899589571 0.001007140329434719206 2.56096734069193355
0.001267914553963578328 3.19854460710216282 0.001267914553963578328 3.22238579065537012
0.001596209851982166583 4.02535589669750227 0.001596209851982166583 4.05418100884879351
0.002009509145210586212 5.06553310539697232 0.002009509145210586212 5.10000186226767660
0.002529822128138903281 6.37394468925445867 0.002529822128138903281 6.41455100292319891
0.003184857364445292660 8.01946564519358418 0.003184857364445292660 8.06631443402021198
0.004009497869020606231 10.08849729254870375 0.004009497869020606231 10.14092691612966668
0.005047658755842121536 12.68934124530836982 0.005047658755842121536 12.74530001712267691
0.006354625877804664924 15.95761818780447072 0.006354625877804664924 16.01265243625565304
0.008000000000009777068 20.06295518569019620 0.008000000000009777068 20.10858801867884083
0.010071403294347192059 25.21719845317581132 0.010071403294347192059 25.23835862837082544
0.012679145539692626699 31.68443745460447758 0.012679145539692626699 31.65541559551250117
0.015962098519750611558 39.79314344989515462 0.015962098519750611558 39.67127748609960491
0.020095091452091651263 49.95071873029920795 0.020095091452091651263 49.66659737968134181
0.025298221281346400247 62.66070219625777327 0.025298221281346400247 62.10306158680366195
0.031848573644282396344 78.54275252503573768 0.031848573644282396344 77.53534016792727357
0.040094978690191851456 98.35528740313728235 0.040094978690191851456 96.62166560757597722
0.050476587558421215363 123.02023263594313107 0.050476587558421215363 120.13064848599181289
0.063546258777947173257 153.64864170263842880 0.063546258777947173257 148.94054339921112273
0.079999999999998294697 191.56487284165197593 0.079999999999998294697 184.02525335559178643
0.100714032943542974863 238.32542425222317206 0.100714032943542974863 226.41884463273783012
0.126791455396897845276 295.72629016062546725 0.126791455396897845276 277.14728403455063699
0.159620985197506115583 365.78970456913339149 0.159620985197506115583 337.11279515150329189
0.200950914520774404082 450.71738845286142805 0.200950914520774404082 406.91345432878716792
0.252982212813464002465 552.79318457440137990 0.252982212813464002465 486.58026392973152952
0.318485736442795541734 674.21413340634649103 0.318485736442795541734 575.21992663568141779
0.400949786901819038576 816.82775400324760540 0.400949786901819038576 670.57154586767001092
0.504765875584169521062 981.75897888128508839 0.504765875584169521062 768.53147714204169461
0.635462587779443310865 1168.93049620339525063 0.635462587779443310865 862.78422309089989994
0.799999999999997157829 1376.52482864673402219 0.799999999999997157829 944.79265433355715231
1.007140329435330272645 1600.50980211559931377 1.007140329435330272645 1004.49282938782255314
1.267914553968893187630 1834.43466042249178827 1.267914553968893187630 1031.98167395994983053
1.596209851975103788391 2069.74794664837327218 1.596209851975103788391 1020.13398307504417062
2.009509145207687197399 2296.80733636669128828 2.009509145207687197399 967.44021237375113742
2.529822128134711078928 2506.49558084464433705 2.529822128134711078928 879.75399274005735606
3.184857364427983839050 2692.00200104177247340 3.184857364427983839050 769.67241356715771872
4.009497869018190385759 2850.10135906991354204 4.009497869018190385759 653.22145303271349803
5.009497869018190385759 2977.45877869662899684 5.009497869018190385759 548.07837320620785704
6.009497869018190385759 3065.09491700972694161 6.009497869018190385759 474.32608587566005554
7.009497869018204596614 3129.58020397223435793 7.009497869018204596614 423.01733496144618130
8.009497869018190385759 3179.59620730807864675 8.009497869018190385759 386.90552826181988166
9.009497869018204596614 3220.01005245091391771 9.009497869018204596614 361.59759289686360262
10.009497869018190385759 3253.71535060063342826 10.009497869018190385759 343.54235804966128853
11.009497869018190385759 3282.52616314917031559 11.009497869018190385759 328.89699057471244714
12.009497869018190385759 3307.63106792698954450 12.009497869018190385759 317.72993034540655799
13.009497869018190385759 3329.84240153174687293 13.009497869018190385759 309.03418986390397549
14.009497869018204596614 3349.73500775654611061 14.009497869018204596614 302.12779609716216100
15.009497869018190385759 3367.72857897927451631 15.009497869018190385759 296.53862944026178639
16.009497869018190385759 3384.13805715445232636 16.009497869018190385759 291.93616632808806344
17.009497869018190385759 3399.20562217491442425 17.009497869018190385759 288.17244863789233023
18.009497869018190385759 3413.12145011230950331 18.009497869018190385759 284.87722139839399915
19.009497869018204596614 3426.03713000855077553 19.009497869018204596614 282.15174723156462733
20.009497869018190385759 3438.07607447231885089 20.009497869018190385759 279.65192820266094031
21.009497869018204596614 3449.34024341357462617 21.009497869018204596614 277.44981327611799315
22.009497869018190385759 3459.91419297765742158 22.009497869018190385759 275.48924177566419758
23.009497869018190385759 3469.86949370276670379 23.009497869018190385759 273.75741230957601147
24.009497869018190385759 3479.26719402078151688 24.009497869018190385759 272.15278507180806855
25.009497869018190385759 3488.15940410264374805 25.009497869018190385759 270.68618229560985355
26.009497869018204596614 3496.59169205565285665 26.009497869018204596614 269.36582432503627160
27.009497869018190385759 3504.60329159942102706 27.009497869018190385759 268.10791610822053599
28.009497869018190385759 3512.22906406827314640 28.009497869018190385759 266.93484119883498806
29.009497869018190385759 3519.49937600747080069 29.009497869018190385759 265.84330881398165047
30.009497869018190385759 3526.44148617688597369 30.009497869018190385759 264.80423834689941032
31.009497869018190385759 3533.07945622360239213 31.009497869018190385759 263.82070890240498784
32.009497869018190385759 3539.43495067083767935 32.009497869018190385759 262.88466466176498670
33.009497869018190385759 3545.52742017444597877 33.009497869018190385759 261.99600441306489529
34.009497869018190385759 3551.37433453884614210 34.009497869018190385759 261.13714267616256848
35.009497869018190385759 3556.99166404245897866 35.009497869018190385759 260.30845711953367072
36.009497869018190385759 3562.39375039490641939 36.009497869018190385759 259.51033095008671125
37.009497869018190385759 3567.59374388192145489 37.009497869018190385759 258.73808565701580164
38.009497869018190385759 3572.60366946721660497 38.009497869018190385759 257.98885019980474453
39.009497869018190385759 3577.43446864107545480 39.009497869018190385759 257.25462045091074970
40.009497869018190385759 3582.09624945307996313 40.009497869018190385759 256.53007029193781818
41.009497869018190385759 3586.59831984972743157 41.009497869018190385759 255.84251470537952855
42.009497869018190385759 3590.94922398032986166 42.009497869018190385759 255.15450944123656996
43.009497869018190385759 3595.15689015919178928 43.009497869018190385759 254.49662778607043379
44.009497869018218807469 3599.22867317509962959 44.009497869018218807469 253.83399983770635799
46.009497869018190385759 3606.99132554277230156 46.009497869018190385759 252.54802454080626717
48.009497869018190385759 3614.28620870305348944 48.009497869018190385759 251.31062048751212501
50.009497869018190385759 3621.15598502669354275 50.009497869018190385759 250.08561903949572525
52.009497869018190385759 3627.63796498767669618 52.009497869018190385759 248.89531426883115728
54.009497869018190385759 3633.76508227358317527 54.009497869018190385759 247.74546113387214064
56.009497869018190385759 3639.56636694424287271 56.009497869018190385759 246.61867748170624282
58.009497869018218807469 3645.06777614511520369 58.009497869018218807469 245.46021784748748473
60.009497869018190385759 3650.29232057158378666 60.009497869018190385759 244.37721518299238710
62.009497869018190385759 3655.26079950609209845 62.009497869018190385759 243.31357137592880235
64.009497869018190385759 3659.99179036846453528 64.009497869018190385759 242.26819250278720119
66.009497869018190385759 3664.50213511738911620 66.009497869018190385759 241.22328314978969388
68.009497869018190385759 3668.80712796326133684 68.009497869018190385759 240.18587917060222026
70.009497869018190385759 3672.92047378485267473 70.009497869018190385759 239.19867660048510061
72.009497869018218807469 3676.85491489820469724 72.009497869018218807469 238.21306979950566074
74.009497869018190385759 3680.62191560440624016 74.009497869018190385759 237.25657674622721061
76.009497869018190385759 3684.23196517828318974 76.009497869018190385759 236.32005851800761320
78.009497869018190385759 3687.69484172323109306 78.009497869018190385759 235.39646870402859236
80.009497869018190385759 3691.01936243222826306 80.009497869018190385759 234.49880810913109030
82.009497869018218807469 3694.21368097605591174 82.009497869018218807469 233.62419006822935330
84.009497869018190385759 3697.28545020251613096 84.009497869018190385759 232.77934075084530718
86.009497869018190385759 3700.24158473669149316 86.009497869018190385759 231.93774123604043780
88.009497869018190385759 3703.08849198951429571 88.009497869018190385759 231.13011704664108947
91.009497869018218807469 3707.16728470677026053 91.009497869018218807469 229.94701533843985430
94.009497869018190385759 3711.03233757230418632 94.009497869018190385759 228.81056616762816702
97.009497869018190385759 3714.70026072002656292 97.009497869018190385759 227.71216069295346074
99.504748934509109403734 3717.61173439687217979 99.504748934509109403734 227.00760753428451721
nan nan nan nan

