Time Pressure difference Time.1 Pressure.1 difference.1
(hr) (psi) (hr) (psi)
0.000200000000006639311 0.44692925809899109 0.000200000000006639311 0.35627602281906612
0.000399999999999067768 0.89360539269744121 0.000399999999999067768 0.93256258457524133
0.000600000000005707079 1.34006700586161243 0.000600000000005707079 1.36443122265742489
0.000799999999998135536 1.78633258775534509 0.000799999999998135536 1.80409284475130027
0.001007140329434719206 2.24833307911169022 0.001007140329434719206 2.26563338048034391
0.001267914553963578328 2.82968443824359328 0.001267914553963578328 2.85077622665886965
0.001596209851982166583 3.56114681470602701 0.001596209851982166583 3.58664777883328156
0.002009509145210586212 4.48136948533471813 0.002009509145210586212 4.51186326200616605
0.002529822128138903281 5.63889340713285758 0.002529822128138903281 5.67481694986780560
0.003184857364445292660 7.09465082614325393 0.003184857364445292660 7.13609695398493304
0.004009497869020606231 8.92507915337504798 0.004009497869020606231 8.97146252711965531
0.005047658755842121536 11.22599052509159101 0.005047658755842121536 11.27549606127657000
0.006354625877804664924 14.11736567850247326 0.006354625877804664924 14.16605330851612266
0.008000000000009777068 17.74927007366661513 0.008000000000009777068 17.78964047121999670
0.010071403294347192059 22.30911955412753045 0.010071403294347192059 22.32783951142525680
0.012679145539692626699 28.03054845654465410 0.012679145539692626699 28.00487343458024725
0.015962098519750611558 35.20414832387758963 0.015962098519750611558 35.09633609561035428
0.020095091452091651263 44.19033930505877805 0.020095091452091651263 43.93898318433094374
0.025298221281346400247 55.43459156406989763 0.025298221281346400247 54.94125876789715335
0.031848573644282396344 69.48510396366424402 0.031848573644282396344 68.59386766091755305
0.040094978690191851456 87.01283251315439315 0.040094978690191851456 85.47913415365454171
0.050476587558421215363 108.83338537973880022 0.050476587558421215363 106.27703169189061327
0.063546258777947173257 135.92968796427814482 0.063546258777947173257 131.76453345202040168
0.079999999999998294697 169.47337185497053724 0.079999999999998294697 162.80323072809355267
0.100714032943542974863 210.84143792989101485 0.100714032943542974863 200.30793997986853583
0.126791455396897845276 261.62276411244795327 0.126791455396897845276 245.18631223484956649
0.159620985197506115583 323.60637784781653181 0.159620985197506115583 298.23652552941888416
0.200950914520774404082 398.74009489157594999 0.200950914520774404082 359.98768529581337816
0.252982212813464002465 489.04438239942936661 0.252982212813464002465 430.46721866600637441
0.318485736442795541734 596.46291538584534919 0.318485736442795541734 508.88484448659130521
0.400949786901819038576 722.63015469480058073 0.400949786901819038576 593.24039560286462347
0.504765875584169521062 868.54130421622744507 0.504765875584169521062 679.90346495103199231
0.635462587779443310865 1034.12796781091151388 0.635462587779443310865 763.28686622703992271
0.799999999999997157829 1217.78226191646831467 0.799999999999997157829 835.83798249937433411
1.007140329435330272645 1415.93700780243284498 1.007140329435330272645 888.65345861822197548
1.267914553968893187630 1622.88535856157841408 1.267914553968893187630 912.97225521662767278
1.596209851975103788391 1831.06202199370090966 1.596209851975103788391 902.49085487858098986
2.009509145207687197399 2031.93663859788011905 2.009509145207687197399 855.87379579028720400
2.529822128134711078928 2217.44337218051759919 2.529822128134711078928 778.29966079309849647
3.184857364427983839050 2381.55695973547244648 3.184857364427983839050 680.91282715908357659
4.009497869018190385759 2521.42410184603568268 4.009497869018190385759 577.89113719698059413
5.009497869018190385759 2634.09450438235535330 5.009497869018190385759 484.87328898143925926
6.009497869018190385759 2711.62433349954426376 6.009497869018190385759 419.62620776808807932
7.009497869018204596614 2768.67309643013140885 7.009497869018204596614 374.23444625090053250
8.009497869018190385759 2812.92119163828374440 8.009497869018190385759 342.28709831399879704
9.009497869018204596614 2848.67446155871630253 9.009497869018204596614 319.89770574236536049
10.009497869018190385759 2878.49282252477814836 10.009497869018190385759 303.92462318396724186
11.009497869018190385759 2903.98113609737083607 11.009497869018190385759 290.96817782309818767
12.009497869018190385759 2926.19091182338297585 12.009497869018190385759 281.08891696125749604
13.009497869018190385759 2945.84080662693259001 13.009497869018190385759 273.39598015966458888
14.009497869018204596614 2963.43937259516496852 14.009497869018204596614 267.28604036931807286
15.009497869018190385759 2979.35790265547029776 15.009497869018190385759 262.34142340925961889
16.009497869018190385759 2993.87501926184677359 16.009497869018190385759 258.26972210573853772
17.009497869018190385759 3007.20497381866380238 17.009497869018190385759 254.94004105197393528
18.009497869018190385759 3019.51601105487679888 18.009497869018190385759 252.02482354355453253
19.009497869018204596614 3030.94223857428642077 19.009497869018204596614 249.61365447009922036
20.009497869018190385759 3041.59283688901996356 20.009497869018190385759 247.40211770153032944
21.009497869018204596614 3051.55800776456317180 21.009497869018204596614 245.45395342549480233
22.009497869018190385759 3060.91255622570361083 22.009497869018190385759 243.71947748522524080
23.009497869018190385759 3069.71979920656622198 23.009497869018190385759 242.18736476151948978
24.009497869018190385759 3078.03374495742900763 24.009497869018190385759 240.76778514589935298
25.009497869018190385759 3085.90049423907703385 25.009497869018190385759 239.47031283812597735
26.009497869018204596614 3093.36036018762024469 26.009497869018204596614 238.30222020188546139
27.009497869018190385759 3100.44805204100339324 27.009497869018190385759 237.18937553560863307
28.009497869018190385759 3107.19441088082839997 28.009497869018190385759 236.15158109353276927
29.009497869018190385759 3113.62630134433629792 29.009497869018190385759 235.18592558996400044
30.009497869018190385759 3119.76783867707990794 30.009497869018190385759 234.26668203012351910
31.009497869018190385759 3125.64030970687690569 31.009497869018190385759 233.39657443260540504
32.009497869018190385759 3131.26288057700139689 32.009497869018190385759 232.56847598577891745
33.009497869018190385759 3136.65275886932067806 33.009497869018190385759 231.78229714961423724
34.009497869018190385759 3141.82539974853443709 34.009497869018190385759 231.02248042355731172
35.009497869018190385759 3146.79493178056054603 35.009497869018190385759 230.28935992288234047
36.009497869018190385759 3151.57404277111163537 36.009497869018190385759 229.58327466259729022
37.009497869018190385759 3156.17436649850333197 37.009497869018190385759 228.90008566362024567
38.009497869018190385759 3160.60654119257878847 38.009497869018190385759 228.23725297742197426
39.009497869018190385759 3164.88024655726121637 39.009497869018190385759 227.58769552246963030
40.009497869018190385759 3169.00442496919959012 40.009497869018190385759 226.94670139500922801
41.009497869018190385759 3172.98731097084646535 41.009497869018190385759 226.33843557955322012
42.009497869018190385759 3176.83646338951757571 42.009497869018190385759 225.72977194389463307
43.009497869018190385759 3180.55889623638540797 43.009497869018190385759 225.14775802490910905
44.009497869018218807469 3184.16111613678504000 44.009497869018218807469 224.56154516119985942
46.009497869018190385759 3191.02856971411665654 46.009497869018190385759 223.42387014565562708
48.009497869018190385759 3197.48219781472744216 48.009497869018190385759 222.32916507709066423
50.009497869018190385759 3203.55974293135795961 50.009497869018190385759 221.24543232983396024
52.009497869018190385759 3209.29421284741783893 52.009497869018190385759 220.19239499565460960
54.009497869018190385759 3214.71474329639886491 54.009497869018190385759 219.17514436390334254
56.009497869018190385759 3219.84701655528579067 56.009497869018190385759 218.17830281330520847
58.009497869018218807469 3224.71399635902298542 58.009497869018218807469 217.15343819456469987
60.009497869018190385759 3229.33603978079145236 60.009497869018190385759 216.19532875332276944
62.009497869018190385759 3233.73154750374214927 62.009497869018190385759 215.25434568183490569
64.009497869018190385759 3237.91695457638434164 64.009497869018190385759 214.32952120922033146
66.009497869018190385759 3241.90716072164377692 66.009497869018190385759 213.40511211109892997
68.009497869018190385759 3245.71569640242341848 68.009497869018190385759 212.48734285768270524
70.009497869018190385759 3249.35468603371646168 70.009497869018190385759 211.61398572398763918
72.009497869018218807469 3252.83540247172322779 72.009497869018218807469 210.74204033333532493
74.009497869018190385759 3256.16798793997713801 74.009497869018190385759 209.89585125654699027
76.009497869018190385759 3259.36172207699837600 76.009497869018190385759 209.06733348298203623
78.009497869018190385759 3262.42525536305629430 78.009497869018190385759 208.25025320274028218
80.009497869018190385759 3265.36638818139499563 80.009497869018190385759 207.45611195157067641
82.009497869018218807469 3268.19233391127181676 82.009497869018218807469 206.68235595821937522
84.009497869018190385759 3270.90986286449924592 84.009497869018190385759 205.93493572191752605
86.009497869018190385759 3273.52509226293750544 86.009497869018190385759 205.19039051689244957
88.009497869018190385759 3276.04369060686849480 88.009497869018190385759 204.47590256020799870
91.009497869018218807469 3279.65211184108011366 91.009497869018218807469 203.42923762231006890
94.009497869018190385759 3283.07144197088564397 94.009497869018190385759 202.42384519277814547
97.009497869018190385759 3286.31637562875494041 97.009497869018190385759 201.45210921271171856
99.504748934509109403734 3288.89209451584929411 99.504748934509109403734 200.82880600644281799
nan nan nan nan

