Time Pressure difference Time.1 Pressure.1 difference.1
(hr) (psi) (hr) (psi)
0.000200000000006639311 0.09571110741412285 0.000200000000006639311 0.07629747229831024
0.000399999999999067768 0.19136800774712429 0.000399999999999067768 0.19971079557942784
0.000600000000005707079 0.28697896773572706 0.000600000000005707079 0.29219663055047274
0.000799999999998135536 0.38254794709844442 0.000799999999998135536 0.38635135409012944
0.001007140329434719206 0.48148659980976605 0.001007140329434719206 0.48519150606189854
0.001267914553963578328 0.60598456312479188 0.001267914553963578328 0.61050142656567963
0.001596209851982166583 0.76262920612885121 0.001596209851982166583 0.76809030645405474
0.002009509145210586212 0.95969737581655978 0.002009509145210586212 0.96622770042962580
0.002529822128138903281 1.20758424919977370 0.002529822128138903281 1.21527737287671811
0.003184857364445292660 1.51933863129697233 0.003184857364445292660 1.52821443148653113
0.004009497869020606231 1.91132980007100661 0.004009497869020606231 1.92126292480216065
0.005047658755842121536 2.40407618321328265 0.005047658755842121536 2.41467792746146293
0.006354625877804664924 3.02327197956756821 0.006354625877804664924 3.03369856700065910
0.008000000000009777068 3.80105411261016846 0.008000000000009777068 3.80969954225381668
0.010071403294347192059 4.77755819129360582 0.010071403294347192059 4.78156712069628487
0.012679145539692626699 6.00281763966971127 0.012679145539692626699 5.99731926438869412
0.015962098519750611558 7.53906342131456864 0.015962098519750611558 7.51597514151804624
0.020095091452091651263 9.46348048432357203 0.020095091452091651263 9.40965189236137434
0.025298221281346400247 11.87146746716580559 0.025298221281346400247 11.76581891677499492
0.031848573644282396344 14.88042263653889918 0.031848573644282396344 14.68956197580170908
0.040094978690191851456 18.63403303354330731 0.040094978690191851456 18.30558738858523782
0.050476587558421215363 23.30696334947851511 0.050476587558421215363 22.75951330459482591
0.063546258777947173257 29.10970971302046095 0.063546258777947173257 28.21773062752764005
0.079999999999998294697 36.29318019240523796 0.079999999999998294697 34.86475145946138099
0.100714032943542974863 45.15226324383140621 0.100714032943542974863 42.89648621542808371
0.126791455396897845276 56.02722136486315208 0.126791455396897845276 52.50731081379459653
0.159620985197506115583 69.30117961359199796 0.159620985197506115583 63.86815723628150465
0.200950914520774404082 85.39126799354046682 0.200950914520774404082 77.09233483988555236
0.252982212813464002465 104.73017500173997973 0.252982212813464002465 92.18571721897714610
0.318485736442795541734 127.73414389082347498 0.318485736442795541734 108.97906353064803398
0.400949786901819038576 154.75319886387723045 0.400949786901819038576 127.04403257789465442
0.504765875584169521062 186.00046552116603493 0.504765875584169521062 145.60316288523031858
0.635462587779443310865 221.46129664479485655 0.635462587779443310865 163.45994341919848125
0.799999999999997157829 260.79135962829394657 0.799999999999997157829 178.99696087044327442
1.007140329435330272645 303.22673351448753465 1.007140329435330272645 190.30753769291530375
1.267914553968893187630 347.54528162864340857 1.267914553968893187630 195.51547364974334187
1.596209851975103788391 392.12687621839035046 1.596209851975103788391 193.27085346561793244
2.009509145207687197399 435.14471776304696959 2.009509145207687197399 183.28768438711924205
2.529822128134711078928 474.87148566249442183 2.529822128134711078928 166.67497391286093489
3.184857364427983839050 510.01685357463560422 3.184857364427983839050 145.81932052755050222
4.009497869018190385759 539.96977972494244113 4.009497869018190385759 123.75694744441857154
5.009497869018190385759 564.09845065916363183 5.009497869018190385759 103.83692408354843906
6.009497869018190385759 580.70167290958579542 6.009497869018190385759 89.86408546243971784
7.009497869018204596614 592.91881953345455258 7.009497869018204596614 80.14331716732507971
8.009497869018190385759 602.39466860037737206 8.009497869018190385759 73.30170634284890241
9.009497869018204596614 610.05132789432468599 9.009497869018204596614 68.50695746810430364
10.009497869018190385759 616.43701041033421006 10.009497869018190385759 65.08627870792594194
11.009497869018190385759 621.89540158509805678 11.009497869018190385759 62.31162094908061277
12.009497869018190385759 626.65168502735389211 12.009497869018190385759 60.19595055967339192
13.009497869018190385759 630.85976305790927654 13.009497869018190385759 58.54848737125033864
14.009497869018204596614 634.62854347941151900 14.009497869018204596614 57.24002726717240108
15.009497869018190385759 638.03753967482134613 15.009497869018190385759 56.18112419378929445
16.009497869018190385759 641.14641939499517775 16.009497869018190385759 55.30915836528851770
17.009497869018190385759 644.00106515669722285 17.009497869018190385759 54.59609817686592947
18.009497869018190385759 646.63750702292509231 18.009497869018190385759 53.97179647580775708
19.009497869018204596614 649.08446449914879395 19.009497869018204596614 53.45543810812180396
20.009497869018190385759 651.36531888684783098 20.009497869018190385759 52.98183153757167219
21.009497869018204596614 653.49938713766243836 21.009497869018204596614 52.56462689745233519
22.009497869018190385759 655.50268894963858202 22.009497869018190385759 52.19318419143557009
23.009497869018190385759 657.38878381518645710 23.009497869018190385759 51.86507811466432116
24.009497869018190385759 659.16923774693543692 24.009497869018190385759 51.56107130684996065
25.009497869018190385759 660.85392334728840069 25.009497869018190385759 51.28321410872344188
26.009497869018204596614 662.45147378319609288 26.009497869018204596614 51.03306391660489538
27.009497869018190385759 663.96932213168599901 27.009497869018190385759 50.79474522643386791
28.009497869018190385759 665.41407309365979472 28.009497869018190385759 50.57249874442507576
29.009497869018190385759 666.79147980372192706 29.009497869018190385759 50.36570101088614848
30.009497869018190385759 668.10670660682353628 30.009497869018190385759 50.16884252041751324
31.009497869018190385759 669.36431213461980860 31.009497869018190385759 49.98250662895647167
32.009497869018190385759 670.56840086844533744 32.009497869018190385759 49.80516711054855250
33.009497869018190385759 671.72265785842057539 33.009497869018190385759 49.63680478995463119
34.009497869018190385759 672.83039286979783355 34.009497869018190385759 49.47408798642288730
35.009497869018190385759 673.89463157311831765 35.009497869018190385759 49.31708825164147214
36.009497869018190385759 674.91809109623443419 36.009497869018190385759 49.16587818658973674
37.009497869018190385759 675.90326284418608793 37.009497869018190385759 49.01957141772128779
38.009497869018190385759 676.85242502261928621 38.009497869018190385759 48.87762400820023601
39.009497869018190385759 677.76765056626641126 39.009497869018190385759 48.73851952529610543
40.009497869018190385759 678.65085450923265853 40.009497869018190385759 48.60124890209695536
41.009497869018190385759 679.50380030101928241 41.009497869018190385759 48.47098713528606595
42.009497869018190385759 680.32810668490606076 42.009497869018190385759 48.34064017420462278
43.009497869018190385759 681.12527573032468808 43.009497869018190385759 48.21600032190790586
44.009497869018218807469 681.89670084865974786 44.009497869018218807469 48.09046125426067420
46.009497869018190385759 683.36738457564888449 46.009497869018190385759 47.84682507774747506
48.009497869018190385759 684.74944645939228849 48.009497869018190385759 47.61239103140675155
50.009497869018190385759 686.05096915662238644 50.009497869018190385759 47.38030673730149545
52.009497869018190385759 687.27902137328317167 52.009497869018190385759 47.15479594879009539
54.009497869018190385759 688.43984260537399678 54.009497869018190385759 46.93694897923442255
56.009497869018190385759 689.53893278185819327 56.009497869018190385759 46.72347266951601341
58.009497869018218807469 690.58120964858039770 58.009497869018218807469 46.50399514408741197
60.009497869018190385759 691.57103272772997116 60.009497869018190385759 46.29881342017154111
62.009497869018190385759 692.51234257528926719 62.009497869018190385759 46.09729935458288708
64.009497869018190385759 693.40865880127421406 64.009497869018190385759 45.89924569657418374
66.009497869018190385759 694.26317222158104414 66.009497869018190385759 45.70128099213478379
68.009497869018190385759 695.07878042137565444 68.009497869018190385759 45.50473822836779902
70.009497869018190385759 695.85807987686666820 70.009497869018190385759 45.31770643996011216
72.009497869018218807469 696.60348470064832327 72.009497869018218807469 45.13097698013698533
74.009497869018190385759 697.31716687727623594 74.009497869018190385759 44.94976330447467916
76.009497869018190385759 698.00111366639634980 76.009497869018190385759 44.77233398611347326
78.009497869018190385759 698.65717759171604939 78.009497869018190385759 44.59735403783079022
80.009497869018190385759 699.28702912636936162 80.009497869018190385759 44.42728654456355031
82.009497869018218807469 699.89221303500232807 82.009497869018218807469 44.26158460930210481
84.009497869018190385759 700.47417919817030452 84.009497869018190385759 44.10152254752424028
86.009497869018190385759 701.03423763545220027 86.009497869018190385759 43.94207618145741634
88.009497869018190385759 701.57360227148956255 88.009497869018190385759 43.78906665628290540
91.009497869018218807469 702.34635542220530624 91.009497869018218807469 43.56492053364181771
94.009497869018190385759 703.07861420233109584 94.009497869018190385759 43.34961303011077405
97.009497869018190385759 703.77352550708894796 97.009497869018190385759 43.14151314611144272
99.504748934509109403734 704.32512266168089354 99.504748934509109403734 43.00803108145423437
nan nan nan nan

