Time Pressure difference Time.1 Pressure.1 difference.1
(hr) (psi) (hr) (psi)
0.000200000000006639311 0.82894141725622927 0.000200000000006639311 0.66080245573145224
0.000399999999999067768 1.65741335405335466 0.000399999999999067768 1.72966915127921839
0.000600000000005707079 2.48548740751986230 0.000600000000005707079 2.53067690459365968
0.000799999999998135536 3.31319787226131046 0.000799999999998135536 3.34613868411973003
0.001007140329434719206 4.17009263835240862 0.001007140329434719206 4.20218034815348673
0.001267914553963578328 5.24835325975906830 0.001267914553963578328 5.28747322486449534
0.001596209851982166583 6.60503208090726801 0.001596209851982166583 6.65232995850642084
0.002009509145210586212 8.31181379402863918 0.002009509145210586212 8.36837208372093322
0.002529822128138903281 10.45872967133021625 0.002529822128138903281 10.52535881204531520
0.003184857364445292660 13.15879371105899409 0.003184857364445292660 13.23566585878769608
0.004009497869020606231 16.55377809452802040 0.004009497869020606231 16.63980759219958472
0.005047658755842121536 20.82139024765590918 0.005047658755842121536 20.91321057175319353
0.006354625877804664924 26.18416427521128753 0.006354625877804664924 26.27446758897962553
0.008000000000009777068 32.92043387964980639 0.008000000000009777068 32.99531081812871491
0.010071403294347192059 41.37780833502983313 0.010071403294347192059 41.41252914968260512
0.012679145539692626699 51.98962060096550175 0.012679145539692626699 51.94199988983599070
0.015962098519750611558 65.29484493590705085 0.015962098519750611558 65.09488035610412737
0.020095091452091651263 81.96197010770677593 0.020095091452091651263 81.49576769384286479
0.025298221281346400247 102.81723128084470886 0.025298221281346400247 101.90222296615560538
0.031848573644282396344 128.87739953037166174 0.031848573644282396344 127.22438024259568579
0.040094978690191851456 161.38692957747070977 0.040094978690191851456 158.54230468722516889
0.050476587558421215363 201.85856953113568579 0.050476587558421215363 197.11717609892562564
0.063546258777947173257 252.11539890581198620 0.063546258777947173257 244.39008439145680995
0.079999999999998294697 314.33049975335319459 0.079999999999998294697 301.95906481411765299
0.100714032943542974863 391.05786252918335322 0.100714032943542974863 371.52087191796846355
0.126791455396897845276 485.24445634264088767 0.126791455396897845276 454.75897017860364713
0.159620985197506115583 600.20847734902281445 0.159620985197506115583 553.15377919422940067
0.200950914520774404082 739.56263410057658803 0.200950914520774404082 667.68665652631307239
0.252982212813464002465 907.05438523246107252 0.252982212813464002465 798.40847260957605158
0.318485736442795541734 1106.28875926313207856 0.318485736442795541734 943.85345457848200112
0.400949786901819038576 1340.29727016018864560 0.400949786901819038576 1100.31179519637453268
0.504765875584169521062 1610.92577094853368180 0.504765875584169521062 1261.05000203208169296
0.635462587779443310865 1918.04740398448416272 0.635462587779443310865 1415.70524909149298765
0.799999999999997157829 2258.67994947635452263 0.799999999999997157829 1550.26933066923061233
1.007140329435330272645 2626.20718765590936528 1.007140329435330272645 1648.22876123603168708
1.267914553968893187630 3010.04435219242486710 1.267914553968893187630 1693.33401526212514909
1.596209851975103788391 3396.15972794362414788 1.596209851975103788391 1673.89365262396040634
2.009509145207687197399 3768.73164253908498722 2.009509145207687197399 1587.43072738757200568
2.529822128134711078928 4112.79999756386496301 2.529822128134711078928 1443.55020884529994873
3.184857364427983839050 4417.18944487249609665 3.184857364427983839050 1262.92211517774148888
4.009497869018190385759 4676.60783135689234769 4.009497869018190385759 1071.84277960557278675
5.009497869018190385759 4885.58310310023443890 5.009497869018190385759 899.31805554099355504
6.009497869018190385759 5029.38144537345669960 6.009497869018190385759 778.30112278773867729
7.009497869018204596614 5135.19255874192003830 7.009497869018204596614 694.11081651005019921
8.009497869018190385759 5217.26165153022429877 8.009497869018190385759 634.85651754328273455
9.009497869018204596614 5283.57497898041219742 9.009497869018204596614 593.32982294114685828
10.009497869018190385759 5338.88054233645925706 10.009497869018190385759 563.70377037473258497
11.009497869018190385759 5386.15495633702357736 11.009497869018190385759 539.67282143725469723
12.009497869018190385759 5427.34850684560387890 12.009497869018190385759 521.34927615160609093
13.009497869018190385759 5463.79412178850088821 13.009497869018190385759 507.08081236317684670
14.009497869018204596614 5496.43503743907785974 14.009497869018204596614 495.74841007046700270
15.009497869018190385759 5525.95990883584454423 15.009497869018190385759 486.57738866968816183
16.009497869018190385759 5552.88551058621851553 16.009497869018190385759 479.02540636371617211
17.009497869018190385759 5577.60922518322058750 17.009497869018190385759 472.84968507963884576
18.009497869018190385759 5600.44310430289988290 18.009497869018190385759 467.44268947743069020
19.009497869018204596614 5621.63588383610658639 19.009497869018204596614 462.97057700599407326
20.009497869018190385759 5641.39006618522216741 20.009497869018190385759 458.86873227322945468
21.009497869018204596614 5659.87295294879822904 21.009497869018204596614 455.25537730315238605
22.009497869018190385759 5677.22328864208702726 22.009497869018190385759 452.03836047538976572
23.009497869018190385759 5693.55851026022355654 23.009497869018190385759 449.19667654091881559
24.009497869018190385759 5708.97878952998053137 24.009497869018190385759 446.56371323150051467
25.009497869018190385759 5723.56963177303714474 25.009497869018190385759 444.15722828076997075
26.009497869018204596614 5737.40580772228986461 26.009497869018204596614 441.99071009511715147
27.009497869018190385759 5750.55169428834233258 27.009497869018190385759 439.92666300459251261
28.009497869018190385759 5763.06449392421836819 28.009497869018190385759 438.00181521258588191
29.009497869018190385759 5774.99403377832186379 29.009497869018190385759 436.21076701602260073
30.009497869018190385759 5786.38504156866292760 30.009497869018190385759 434.50580130726814332
31.009497869018190385759 5797.27699900940297084 31.009497869018190385759 432.89197045600565161
32.009497869018190385759 5807.70545447801396222 32.009497869018190385759 431.35605601831622380
33.009497869018190385759 5817.70232371292968310 33.009497869018190385759 429.89789191995492956
34.009497869018190385759 5827.29627215929303929 34.009497869018190385759 428.48862290849734791
35.009497869018190385759 5836.51350475500748871 35.009497869018190385759 427.12886868378183181
36.009497869018190385759 5845.37755418999495305 36.009497869018190385759 425.81925803342068093
37.009497869018190385759 5853.90999819834178197 37.009497869018190385759 424.55211419174258936
38.009497869018190385759 5862.13056802198934747 38.009497869018190385759 423.32272619276034220
39.009497869018190385759 5870.05721707827251521 39.009497869018190385759 422.11796041039059446
40.009497869018190385759 5877.70653122778912802 40.009497869018190385759 420.92907744772662681
41.009497869018190385759 5885.09378347665369802 41.009497869018190385759 419.80089727604286054
42.009497869018190385759 5892.23299354927348759 42.009497869018190385759 418.67197924789394392
43.009497869018190385759 5899.13717067307334219 43.009497869018190385759 417.59248974452412995
44.009497869018218807469 5905.81838300230538152 44.009497869018218807469 416.50521225429247352
46.009497869018190385759 5918.55578293344478880 46.009497869018190385759 414.39511110814339645
48.009497869018190385759 5930.52564063960562635 48.009497869018190385759 412.36470841114021368
50.009497869018190385759 5941.79795895648567239 50.009497869018190385759 410.35465661175902596
52.009497869018190385759 5952.43395902426073008 52.009497869018190385759 408.40153708691246948
54.009497869018190385759 5962.48768030393512163 54.009497869018190385759 406.51479289841290665
56.009497869018190385759 5972.00675696287635219 56.009497869018190385759 404.66590242467788130
58.009497869018218807469 5981.03378095639982348 58.009497869018218807469 402.76503620444401577
60.009497869018190385759 5989.60650953755703085 60.009497869018190385759 400.98798405644220111
62.009497869018190385759 5997.75907134772296558 62.009497869018190385759 399.24269701882224126
64.009497869018190385759 6005.52194927016626025 64.009497869018190385759 397.52738011989470124
66.009497869018190385759 6012.92277854517215019 66.009497869018190385759 395.81283363622821980
68.009497869018190385759 6019.98665477991471562 68.009497869018190385759 394.11060239525505722
70.009497869018190385759 6026.73606571616710426 70.009497869018190385759 392.49074447130669796
72.009497869018218807469 6033.19191966822381801 72.009497869018218807469 390.87350497579512876
74.009497869018190385759 6039.37302791101865296 74.009497869018190385759 389.30403696745025854
76.009497869018190385759 6045.29660184113708965 76.009497869018190385759 387.76734478407837514
78.009497869018190385759 6050.97868592477516358 78.009497869018190385759 386.25186627547361695
80.009497869018190385759 6056.43374791186033690 80.009497869018190385759 384.77893389900259535
82.009497869018218807469 6061.67516680749849911 82.009497869018218807469 383.34381105099907927
84.009497869018190385759 6066.71549983806562523 84.009497869018190385759 381.95753441160121611
86.009497869018190385759 6071.56609291226504865 86.009497869018190385759 380.57659023244860919
88.009497869018190385759 6076.23745967307422688 88.009497869018190385759 379.25139469267628556
91.009497869018218807469 6082.93017391753437551 91.009497869018218807469 377.31009436093262366
94.009497869018190385759 6089.27217170018957404 94.009497869018190385759 375.44534415643767034
97.009497869018190385759 6095.29070787009277410 97.009497869018190385759 373.64301820458257453
99.504748934509109403734 6100.06801887855817768 99.504748934509109403734 372.48694745329055422
nan nan nan nan

