Time Pressure difference Time.1 Pressure.1 difference.1
(hr) (psi) (hr) (psi)
0.000200000000006639311 0.77151475280775561 0.000200000000006639311 0.61502397235246598
0.000399999999999067768 1.54259254940508006 0.000399999999999067768 1.60984267393156188
0.000600000000005707079 2.31330002687842606 0.000600000000005707079 2.35535892626337562
0.000799999999998135536 3.08366910400224370 0.000799999999998135536 3.11432787166565239
0.001007140329434719206 3.88120067846654937 0.001007140329434719206 3.91106544451634752
0.001267914553963578328 4.88476252188419213 0.001267914553963578328 4.92117236892508814
0.001596209851982166583 6.14745455722995793 0.001596209851982166583 6.19147577463398857
0.002009509145210586212 7.73599536853870351 0.002009509145210586212 7.78863546346315694
0.002529822128138903281 9.73417912181035128 0.002529822128138903281 9.79619238831928563
0.003184857364445292660 12.24719053228081123 0.003184857364445292660 12.31873719989577687
0.004009497869020606231 15.40698021448541866 0.004009497869020606231 15.48704983731828833
0.005047658755842121536 19.37894453772793923 0.005047658755842121536 19.46440381527631303
0.006354625877804664924 24.37020108747074687 0.006354625877804664924 24.45424844877922510
0.008000000000009777068 30.63980141208370611 0.008000000000009777068 30.70949109277641753
0.010071403294347192059 38.51127342025367284 0.010071403294347192059 38.54358887726483118
0.012679145539692626699 48.38793001716367570 0.012679145539692626699 48.34360833120278045
0.015962098519750611558 60.77140688311830985 0.015962098519750611558 60.58529527119330282
0.020095091452091651263 76.28388181711262916 0.020095091452091651263 75.84997655842603592
0.025298221281346400247 95.69435080054523723 0.025298221281346400247 94.84273161609061731
0.031848573644282396344 119.94914594844833289 0.031848573644282396344 118.41064305711464044
0.040094978690191851456 150.20650975734474741 0.040094978690191851456 147.55895225407402904
0.050476587558421215363 187.87439152144855825 0.050476587558421215363 183.46146811616873151
0.063546258777947173257 234.64957307799971886 0.063546258777947173257 227.45944601494019821
0.079999999999998294697 292.55459163790999355 0.079999999999998294697 281.04021393844084287
0.100714032943542974863 363.96650458288445407 0.100714032943542974863 345.78298018871163322
0.126791455396897845276 451.62812352372299074 0.126791455396897845276 423.25458369032685368
0.159620985197506115583 558.62776958086760715 0.159620985197506115583 514.83288485246043820
0.200950914520774404082 688.32787330445228235 0.200950914520774404082 621.43125562238174098
0.252982212813464002465 844.21628023141715857 0.252982212813464002465 743.09704227818974687
0.318485736442795541734 1029.64827292863810726 0.318485736442795541734 878.46601646009321485
0.400949786901819038576 1247.44535084186236418 0.400949786901819038576 1024.08537564963762634
0.504765875584169521062 1499.32549163583394147 0.504765875584169521062 1173.68810430094367803
0.635462587779443310865 1785.17062599760720332 0.635462587779443310865 1317.62928303997409785
0.799999999999997157829 2102.20513369937816606 0.799999999999997157829 1442.87115414696472726
1.007140329435330272645 2444.27114754721696954 1.007140329435330272645 1534.04423862028261283
1.267914553968893187630 2801.51718321523867417 1.267914553968893187630 1576.02473107227910987
1.596209851975103788391 3160.88360221258972160 1.596209851975103788391 1557.93114054458965256
2.009509145207687197399 3507.64481188125682820 2.009509145207687197399 1477.45811675530035245
2.529822128134711078928 3827.87710616636832128 2.529822128134711078928 1343.54522449758337643
3.184857364427983839050 4111.17933272771460906 3.184857364427983839050 1175.43052286121110228
4.009497869018190385759 4352.62596352192758786 4.009497869018190385759 997.58861113892180583
5.009497869018190385759 4547.12403270473623706 5.009497869018190385759 837.01590109086441771
6.009497869018190385759 4680.96044162770522234 6.009497869018190385759 724.38267151027491764
7.009497869018204596614 4779.44126702184712485 7.009497869018204596614 646.02482620965508886
8.009497869018190385759 4855.82485036999878503 8.009497869018190385759 590.87549373757326521
9.009497869018204596614 4917.54418224381697655 9.009497869018204596614 552.22564846028433294
10.009497869018190385759 4969.01833609025925398 10.009497869018190385759 524.65200314997696296
11.009497869018190385759 5013.01771538596494793 11.009497869018190385759 502.28584886780635088
12.009497869018190385759 5051.35749582919106615 12.009497869018190385759 485.23170581580205862
13.009497869018190385759 5085.27826395375541324 13.009497869018190385759 471.95171994042664210
14.009497869018204596614 5115.65791135142990242 14.009497869018204596614 461.40439371016356063
15.009497869018190385759 5143.13738503095100896 15.009497869018190385759 452.86871415341460079
16.009497869018190385759 5168.19765894922147709 16.009497869018190385759 445.83991134454305438
17.009497869018190385759 5191.20858608920298138 17.009497869018190385759 440.09202617351922981
18.009497869018190385759 5212.46060008914446371 18.009497869018190385759 435.05961159194606580
19.009497869018204596614 5232.18520513661678706 19.009497869018204596614 430.89731414112100083
20.009497869018190385759 5250.57087485311330965 20.009497869018190385759 427.07963335068643573
21.009497869018204596614 5267.77332066620147089 21.009497869018204596614 423.71660116468098067
22.009497869018190385759 5283.92167527230412816 22.009497869018190385759 420.72244996052847910
23.009497869018190385759 5299.12523997111202334 23.009497869018190385759 418.07762967212022431
24.009497869018190385759 5313.47724688182006503 24.009497869018190385759 415.62707044739050843
25.009497869018190385759 5327.05727776466392243 25.009497869018190385759 413.38729981553592552
26.009497869018204596614 5339.93492345237245900 26.009497869018204596614 411.37087174515420429
27.009497869018190385759 5352.17010100933021022 27.009497869018190385759 409.44981586873217339
28.009497869018190385759 5363.81605006802237767 28.009497869018190385759 407.65831596593085351
29.009497869018190385759 5374.91914589608859387 29.009497869018190385759 405.99134640949091590
30.009497869018190385759 5385.52101760456844204 30.009497869018190385759 404.40449579501768085
31.009497869018190385759 5395.65841172863110842 31.009497869018190385759 402.90246647863170892
32.009497869018190385759 5405.36441395694691892 32.009497869018190385759 401.47295575198705819
33.009497869018190385759 5414.66872899787722417 33.009497869018190385759 400.11580904598213237
34.009497869018190385759 5423.59803643741452106 34.009497869018190385759 398.80417011664360416
35.009497869018190385759 5432.17672581113583874 35.009497869018190385759 397.53861573279692720
36.009497869018190385759 5440.42669953225413337 36.009497869018190385759 396.31973112146681615
37.009497869018190385759 5448.36804049183047027 37.009497869018190385759 395.14037134110986926
38.009497869018190385759 5456.01911300841857155 38.009497869018190385759 393.99615178784017644
39.009497869018190385759 5463.39662673851216823 39.009497869018190385759 392.87484869521296105
40.009497869018190385759 5470.51601852224939648 40.009497869018190385759 391.76832810646845928
41.009497869018190385759 5477.39150329604217404 41.009497869018190385759 390.71830499487117550
42.009497869018190385759 5484.03612953832907806 42.009497869018190385759 389.66759514337121573
43.009497869018190385759 5490.46200523487823375 43.009497869018190385759 388.66288955137935091
44.009497869018218807469 5496.68036249310898711 44.009497869018218807469 387.65093550173605763
46.009497869018190385759 5508.53535218805609475 46.009497869018190385759 385.68701606149488725
48.009497869018190385759 5519.67597276397100359 48.009497869018190385759 383.79727379229615281
50.009497869018190385759 5530.16737746251237695 50.009497869018190385759 381.92647256937817701
52.009497869018190385759 5540.06654620029075886 52.009497869018190385759 380.10865951763838666
54.009497869018190385759 5549.42377474071054166 54.009497869018190385759 378.35262351087226307
56.009497869018190385759 5558.28339729376148171 56.009497869018190385759 376.63181882296822778
58.009497869018218807469 5566.68505516725235793 58.009497869018218807469 374.86263911799159132
60.009497869018190385759 5574.66388990091945743 60.009497869018190385759 373.20869600433928781
62.009497869018190385759 5582.25166580254881410 62.009497869018190385759 371.58431740607250049
64.009497869018190385759 5589.47675398940191371 64.009497869018190385759 369.98783270195019668
66.009497869018190385759 5596.36487521222261421 66.009497869018190385759 368.39206504094738648
68.009497869018190385759 5602.93938652708948212 68.009497869018190385759 366.80775945823432949
70.009497869018190385759 5609.22121779004737618 70.009497869018190385759 365.30012060733065482
72.009497869018218807469 5615.22982884783505142 72.009497869018218807469 363.79491878771295887
74.009497869018190385759 5620.98272778465343436 74.009497869018190385759 362.33417898476545815
76.009497869018190385759 5626.49593364129941619 76.009497869018190385759 360.90394439241032387
78.009497869018190385759 5631.78437936974478362 78.009497869018190385759 359.49345385277513287
80.009497869018190385759 5636.86153043603917467 80.009497869018190385759 358.12256197226446375
82.009497869018218807469 5641.73983898649748880 82.009497869018218807469 356.78686028541778796
84.009497869018190385759 5646.43099231916312419 84.009497869018190385759 355.49662088308667762
86.009497869018190385759 5650.94555033099277352 86.009497869018190385759 354.21134452357415512
88.009497869018190385759 5655.29329831018094410 88.009497869018190385759 352.97795469890655795
91.009497869018218807469 5661.52236066421119176 91.009497869018218807469 351.17114204074749750
94.009497869018190385759 5667.42500317879148497 94.009497869018190385759 349.43557633837122012
97.009497869018190385759 5673.02659256583956449 97.009497869018190385759 347.75811031691569042
99.504748934509109403734 5677.47294528154907312 99.504748934509109403734 346.68212880441802781
nan nan nan nan

