Time Pressure difference Time.1 Pressure.1 difference.1
(hr) (psi) (hr) (psi)
0.000200000000006639311 0.51517543903775687 0.000200000000006639311 0.41067943784916561
0.000399999999999067768 1.03005910256930377 0.000399999999999067768 1.07496506490144217
0.000600000000005707079 1.54469548720360916 0.000600000000005707079 1.57278012444124027
0.000799999999998135536 2.05910590655597492 0.000799999999998135536 2.07957815810252278
0.001007140329434719206 2.59165395897604522 0.001007140329434719206 2.61159601958534937
0.001267914553963578328 3.26177777890648857 0.001267914553963578328 3.28609028734048447
0.001596209851982166583 4.10493459646746928 0.001596209851982166583 4.13432956256573814
0.002009509145210586212 5.16567544026478753 0.002009509145210586212 5.20082562231250822
0.002529822128138903281 6.49995348047530452 0.002529822128138903281 6.54136255487555296
0.003184857364445292660 8.17800532845935635 0.003184857364445292660 8.22578028774054459
0.004009497869020606231 10.28794040212133076 0.004009497869020606231 10.34140652567423935
0.005047658755842121536 12.94020136877410465 0.005047658755842121536 12.99726640955343804
0.006354625877804664924 16.27309004654195590 0.006354625877804664924 16.32921228672528713
0.008000000000009777068 20.45958691917995154 0.008000000000009777068 20.50612188395750124
0.010071403294347192059 25.71572626444123344 0.010071403294347192059 25.73730476270434764
0.012679145539692626699 32.31081842570044671 0.012679145539692626699 32.28122282310088309
0.015962098519750611558 40.57982832864102818 0.015962098519750611558 40.45555315304061850
0.020095091452091651263 50.93821234605471204 0.020095091452091651263 50.64847409888426455
0.025298221281346400247 63.89946401891855032 0.025298221281346400247 63.33079921290192260
0.031848573644282396344 80.09549227841372954 0.031848573644282396344 79.06816402627180196
0.040094978690191851456 100.29970824142004915 0.040094978690191851456 98.53181385681965310
0.050476587558421215363 125.45226359414958495 0.050476587558421215363 122.50555422212346457
0.063546258777947173257 156.68617662921445799 0.063546258777947173257 151.88500224730094601
0.079999999999998294697 195.35198729651165195 0.079999999999998294697 187.66331437744861432
0.100714032943542974863 243.03696476462295095 0.100714032943542974863 230.89499971608685769
0.126791455396897845276 301.57260891174166773 0.126791455396897845276 282.62630777164224583
0.159620985197506115583 373.02113200707339047 0.159620985197506115583 343.77729851528914651
0.200950914520774404082 459.62778163479606519 0.200950914520774404082 414.95787187729695233
0.252982212813464002465 563.72155066153948155 0.252982212813464002465 496.19964311779875743
0.318485736442795541734 687.54291363843253748 0.318485736442795541734 586.59165500409687866
0.400949786901819038576 832.97591388469561480 0.400949786901819038576 683.82831448449383061
0.504765875584169521062 1001.16772310958072012 0.504765875584169521062 783.72485066050057867
0.635462587779443310865 1192.03950107067839781 0.635462587779443310865 879.84091283899010705
0.799999999999997157829 1403.73784008620827990 0.799999999999997157829 963.47059807656000885
1.007140329435330272645 1632.15085256928500712 1.007140329435330272645 1024.35100723403979828
1.267914553968893187630 1870.70025502721978228 1.267914553968893187630 1052.38328860166211598
1.596209851975103788391 2110.66553373203123556 1.596209851975103788391 1040.30137648015215746
2.009509145207687197399 2342.21374169848741076 2.009509145207687197399 986.56588378805918182
2.529822128134711078928 2556.04738804420912857 2.529822128134711078928 897.14616393096446245
3.184857364427983839050 2745.22115097999494537 3.184857364427983839050 784.88834266568471776
4.009497869018190385759 2906.44603173686391528 4.009497869018190385759 666.13522146169634652
5.009497869018190385759 3036.32122572193293308 5.009497869018190385759 558.91353050188251927
6.009497869018190385759 3125.68987418290089408 6.009497869018190385759 483.70320783695808586
7.009497869018204596614 3191.44999383659478553 7.009497869018204596614 431.38011588325406365
8.009497869018190385759 3242.45478142290085088 8.009497869018190385759 394.55440196716057244
9.009497869018204596614 3283.66758231814810642 9.009497869018204596614 368.74614498049191980
10.009497869018190385759 3318.03921255649402156 10.009497869018190385759 350.33396974092312348
11.009497869018190385759 3347.41959635804960271 11.009497869018190385759 335.39907276070346143
12.009497869018190385759 3373.02080897332189124 12.009497869018190385759 324.01124692554640205
13.009497869018190385759 3395.67124637257256836 13.009497869018190385759 315.14359724177353428
14.009497869018204596614 3415.95711664135433239 14.009497869018204596614 308.10066850764968649
15.009497869018190385759 3434.30640920621226542 15.009497869018190385759 302.40100761700500698
16.009497869018190385759 3451.04029222175631730 16.009497869018190385759 297.70755676620512986
17.009497869018190385759 3466.40573332170015419 17.009497869018190385759 293.86943279547836028
18.009497869018190385759 3480.59666823644101896 18.009497869018190385759 290.50906103065221942
19.009497869018204596614 3493.76768282585317138 19.009497869018204596614 287.72970599067303965
20.009497869018190385759 3506.04462948659829635 20.009497869018190385759 285.18046714571187294
21.009497869018204596614 3517.53148381054870697 21.009497869018204596614 282.93481782193907748
22.009497869018190385759 3528.31447356370699708 22.009497869018190385759 280.93548708259663726
23.009497869018190385759 3538.46658418782953959 23.009497869018190385759 279.16942046067146066
24.009497869018190385759 3548.05007100307011569 24.009497869018190385759 277.53307077339235320
25.009497869018190385759 3557.11807436496974333 25.009497869018190385759 276.03747420260702938
26.009497869018204596614 3565.71706323302942110 26.009497869018204596614 274.69101360329068484
27.009497869018190385759 3573.88704695229262143 27.009497869018190385759 273.40823734923969823
28.009497869018190385759 3581.66357604326412911 28.009497869018190385759 272.21197150260104536
29.009497869018190385759 3589.07761737829423510 29.009497869018190385759 271.09886022381328985
30.009497869018190385759 3596.15696860542402646 30.009497869018190385759 270.03924800120381633
31.009497869018190385759 3602.92616705504087804 31.009497869018190385759 269.03627481151352185
32.009497869018190385759 3609.40730554406673036 32.009497869018190385759 268.08172557764834210
33.009497869018190385759 3615.62021925532462774 33.009497869018190385759 267.17549708679928244
34.009497869018190385759 3621.58272336004256431 34.009497869018190385759 266.29965620518055402
35.009497869018190385759 3627.31110385878446323 35.009497869018190385759 265.45458806753106273
36.009497869018190385759 3632.81998598755717467 36.009497869018190385759 264.64068345651350000
37.009497869018190385759 3638.12278000479273032 37.009497869018190385759 263.85317137016937750
38.009497869018190385759 3643.23174860001199704 38.009497869018190385759 263.08912400935605547
39.009497869018190385759 3648.15804956972942819 39.009497869018190385759 262.34037901007206983
40.009497869018190385759 3652.91199079317402720 40.009497869018190385759 261.60150495998271936
41.009497869018190385759 3657.50306422896483127 41.009497869018190385759 260.90035684123546389
42.009497869018190385759 3661.93998293875483796 42.009497869018190385759 260.19875015506664795
43.009497869018190385759 3666.23083197453024695 43.009497869018190385759 259.52786260226952209
44.009497869018218807469 3670.38311152452479291 44.009497869018218807469 258.85213492510746391
46.009497869018190385759 3678.29922654197071097 46.009497869018190385759 257.54073672283209362
48.009497869018190385759 3685.73832485533739600 48.009497869018190385759 256.27886998644157757
50.009497869018190385759 3692.74391224303690251 50.009497869018190385759 255.02965104686634845
52.009497869018190385759 3699.35403678314969511 52.009497869018190385759 253.81581471566147457
54.009497869018190385759 3705.60228324109993991 54.009497869018190385759 252.64322972300962533
56.009497869018190385759 3711.51825558234941127 56.009497869018190385759 251.49417028200360846
58.009497869018218807469 3717.12842410844541519 58.009497869018218807469 250.31280864513138340
60.009497869018190385759 3722.45625442143364126 60.009497869018190385759 249.20839571379292465
62.009497869018190385759 3727.52295699220940151 62.009497869018190385759 248.12372435205924148
64.009497869018190385759 3732.34747650424969834 64.009497869018190385759 247.05767901025586752
66.009497869018190385759 3736.94698787094512227 66.009497869018190385759 245.99211247070812192
68.009497869018190385759 3741.33708765940446028 68.009497869018190385759 244.93419968138843501
70.009497869018190385759 3745.53175168504822068 70.009497869018190385759 243.92748075074186431
72.009497869018218807469 3749.54397417131576731 72.009497869018218807469 242.92238913656345289
74.009497869018190385759 3753.38544606116556679 74.009497869018190385759 241.94698683017242047
76.009497869018190385759 3757.06686399564659951 76.009497869018190385759 240.99195423829772267
78.009497869018190385759 3760.59819938497548719 78.009497869018190385759 240.05010564710659082
80.009497869018190385759 3763.98844373237125183 80.009497869018190385759 239.13469887899859145
82.009497869018218807469 3767.24591190144701613 82.009497869018218807469 238.24279020137393559
84.009497869018190385759 3770.37840803189055805 84.009497869018190385759 237.38123875580436106
86.009497869018190385759 3773.39298344647750127 86.009497869018190385759 236.52300135932296143
88.009497869018190385759 3776.29617222653951103 88.009497869018190385759 235.69941095860102109
91.009497869018218807469 3780.45560005517472746 91.009497869018218807469 234.49292008977639057
94.009497869018190385759 3784.39706253254735202 94.009497869018190385759 233.33400404903105141
97.009497869018190385759 3788.13749816424433448 97.009497869018190385759 232.21388380385204186
99.504748934509109403734 3791.10652980504801235 99.504748934509109403734 231.49540208191450574
nan nan nan nan

