Time Pressure difference Time.1 Pressure.1 difference.1
(hr) (psi) (hr) (psi)
0.000200000000006639311 0.32874684720503067 0.000200000000006639311 0.26206523093767431
0.000399999999999067768 0.65730750487055734 0.000399999999999067768 0.68596316742499130
0.000600000000005707079 0.98571036744010598 0.000600000000005707079 1.00363190493423260
0.000799999999998135536 1.31396903568596146 0.000799999999998135536 1.32703291187479255
0.001007140329434719206 1.65380179934658766 0.001007140329434719206 1.66652734690825999
0.001267914553963578328 2.08142523855906791 0.001267914553963578328 2.09693968255168217
0.001596209851982166583 2.61946553409474969 0.001596209851982166583 2.63822322651610053
0.002009509145210586212 3.29635185606557490 0.002009509145210586212 3.31878210147567154
0.002529822128138903281 4.14778937768617961 0.002529822128138903281 4.17421358509829243
0.003184857364445292660 5.21859790749829600 0.003184857364445292660 5.24908435162765041
0.004009497869020606231 6.56500235676563104 0.004009497869020606231 6.59912048084220437
0.005047658755842121536 8.25747906408040500 0.005047658755842121536 8.29389375084589453
0.006354625877804664924 10.38428201677556295 0.006354625877804664924 10.42009507795878598
0.008000000000009777068 13.05579456070449318 0.008000000000009777068 13.08548973208919719
0.010071403294347192059 16.40987378748673109 0.010071403294347192059 16.42364358847854078
0.012679145539692626699 20.61837363190901229 0.012679145539692626699 20.59948790811768760
0.015962098519750611558 25.89504392538482591 0.015962098519750611558 25.81574070347502925
0.020095091452091651263 32.50499818528531648 0.020095091452091651263 32.32010867376298791
0.025298221281346400247 40.77590999591733123 0.025298221281346400247 40.41303019240106664
0.031848573644282396344 51.11101688202490578 0.031848573644282396344 50.45545200384065510
0.040094978690191851456 64.00385259347483213 0.040094978690191851456 62.87571320427102961
0.050476587558421215363 80.05435237429577455 0.050476587558421215363 78.17398048099961727
0.063546258777947173257 99.98552466646158621 0.063546258777947173257 96.92177041629059886
0.079999999999998294697 124.65918413913101404 0.079999999999998294697 119.75284196945429471
0.100714032943542974863 155.08820853316007060 0.100714032943542974863 147.34010482690516142
0.126791455396897845276 192.44132555757343539 0.126791455396897845276 180.35119801259884298
0.159620985197506115583 238.03448649885947930 0.159620985197506115583 219.37323572461909293
0.200950914520774404082 293.30044223868247855 0.200950914520774404082 264.79541097178076825
0.252982212813464002465 359.72538370162868659 0.252982212813464002465 316.63789827387802234
0.318485736442795541734 438.73901597282849707 0.318485736442795541734 374.31939212700842745
0.400949786901819038576 531.54359609766527228 0.400949786901819038576 436.36863363711637476
0.504765875584169521062 638.87116418139635243 0.504765875584169521062 500.11521164926932670
0.635462587779443310865 760.67141021473014462 0.635462587779443310865 561.44937087463824810
0.799999999999997157829 895.76162654935740193 0.799999999999997157829 614.81564820717483144
1.007140329435330272645 1041.51791076715289819 1.007140329435330272645 653.66502077131781334
1.267914553968893187630 1193.74248907229684846 1.267914553968893187630 671.55314862303157497
1.596209851975103788391 1346.87057483707963002 1.596209851975103788391 663.84336625147022914
2.009509145207687197399 1494.62750883829176018 2.009509145207687197399 629.55335072097477678
2.529822128134711078928 1631.08032031900279435 2.529822128134711078928 572.49230170069620272
3.184857364427983839050 1751.79701879983531398 3.184857364427983839050 500.85766615984732653
4.009497869018190385759 1854.67880862045444701 4.009497869018190385759 425.07821078735065612
5.009497869018190385759 1937.55554791625763755 5.009497869018190385759 356.65726098262291544
6.009497869018190385759 1994.58400695031650685 6.009497869018190385759 308.66359789272769376
7.009497869018204596614 2036.54724970186566679 7.009497869018204596614 275.27487200950781698
8.009497869018190385759 2069.09473127955698146 8.009497869018190385759 251.77542613413319827
9.009497869018204596614 2095.39369146311537406 9.009497869018204596614 235.30650608609741425
10.009497869018190385759 2117.32712271375658020 10.009497869018190385759 223.55721817070215707
11.009497869018190385759 2136.07550979229336008 11.009497869018190385759 214.02687195553775723
12.009497869018190385759 2152.41230944178050777 12.009497869018190385759 206.76000409626948340
13.009497869018190385759 2166.86614267716640825 13.009497869018190385759 201.10132618820767902
14.009497869018204596614 2179.81108412493540527 14.009497869018204596614 196.60705017854866128
15.009497869018190385759 2191.52024497003867509 15.009497869018190385759 192.96994831779801416
16.009497869018190385759 2202.19857096541818464 16.009497869018190385759 189.97493525468664188
17.009497869018190385759 2212.00365858169880084 17.009497869018190385759 187.52572852053947372
18.009497869018190385759 2221.05926325265636478 18.009497869018190385759 185.38138789516577276
19.009497869018204596614 2229.46403023620678141 19.009497869018204596614 183.60780915398359525
20.009497869018190385759 2237.29826922004258449 20.009497869018190385759 181.98107354209400910
21.009497869018204596614 2244.62832973370996115 21.009497869018204596614 180.54806629994496348
22.009497869018190385759 2251.50923595745416605 22.009497869018190385759 179.27224135319170273
23.009497869018190385759 2257.98756179998872540 23.009497869018190385759 178.14526830689050030
24.009497869018190385759 2264.10303400034354127 24.009497869018190385759 177.10107101048464529
25.009497869018190385759 2269.88956280155571221 25.009497869018190385759 176.14669193865876196
26.009497869018204596614 2275.37680125532597231 26.009497869018204596614 175.28748040920808648
27.009497869018190385759 2280.59028036535619322 27.009497869018190385759 174.46890751688155774
28.009497869018190385759 2285.55268584344003102 28.009497869018190385759 173.70553916563397934
29.009497869018190385759 2290.28377845626209819 29.009497869018190385759 172.99523390695674152
30.009497869018190385759 2294.80129660604598030 30.009497869018190385759 172.31906778752102127
31.009497869018190385759 2299.12089820152050379 31.009497869018190385759 171.67904450815481709
32.009497869018190385759 2303.25668124379080837 32.009497869018190385759 171.06992181449285795
33.009497869018190385759 2307.22130307892302881 33.009497869018190385759 170.49163384375722785
34.009497869018190385759 2311.02613203104510831 34.009497869018190385759 169.93273699684382905
35.009497869018190385759 2314.68156062071057022 35.009497869018190385759 169.39347703824680025
36.009497869018190385759 2318.19692159141368393 36.009497869018190385759 168.87410333654736405
37.009497869018190385759 2321.58077237785619218 37.009497869018190385759 168.37157139130354722
38.009497869018190385759 2324.84093812117043854 38.009497869018190385759 167.88401289773125313
39.009497869018190385759 2327.98453890152359236 39.009497869018190385759 167.40621923906056168
40.009497869018190385759 2331.01815244475574218 40.009497869018190385759 166.93472448981128764
41.009497869018190385759 2333.94783581654428417 41.009497869018190385759 166.48730363859129966
42.009497869018190385759 2336.77914904815543196 42.009497869018190385759 166.03959016357242717
43.009497869018190385759 2339.51725142155009962 43.009497869018190385759 165.61147936655325452
44.009497869018218807469 2342.16692900191810622 44.009497869018218807469 165.18027996028666848
46.009497869018190385759 2347.21840789027237406 46.009497869018190385759 164.34344265835002830
48.009497869018190385759 2351.96549001269522705 48.009497869018190385759 163.53821267309277232
50.009497869018190385759 2356.43593753796358214 50.009497869018190385759 162.74105357594862653
52.009497869018190385759 2360.65402993432053336 52.009497869018190385759 161.96647304149641400
54.009497869018190385759 2364.64119851411078344 54.009497869018190385759 161.21821605910955100
56.009497869018190385759 2368.41633433768674877 56.009497869018190385759 160.48497134312023604
58.009497869018218807469 2371.99632879294995291 58.009497869018218807469 159.73111375577849458
60.009497869018190385759 2375.39615589089862624 60.009497869018190385759 159.02635913885006858
62.009497869018190385759 2378.62935058468929128 62.009497869018190385759 158.33420213095863005
64.009497869018190385759 2381.70800196959407913 64.009497869018190385759 157.65393087084177637
66.009497869018190385759 2384.64306980456103702 66.009497869018190385759 156.97396514689771152
68.009497869018190385759 2387.44450666472494049 68.009497869018190385759 156.29888348004593013
70.009497869018190385759 2390.12123088141197513 70.009497869018190385759 155.65646994594993657
72.009497869018218807469 2392.68153440657488318 72.009497869018218807469 155.01509484481834988
74.009497869018190385759 2395.13287753499253085 74.009497869018190385759 154.39266526319562445
76.009497869018190385759 2397.48208607153537741 76.009497869018190385759 153.78323412621583088
78.009497869018190385759 2399.73552303241558548 78.009497869018190385759 153.18221604298403804
80.009497869018190385759 2401.89892612970379560 80.009497869018190385759 152.59807117480525562
82.009497869018218807469 2403.97760129413836694 82.009497869018218807469 152.02892104934201711
84.009497869018190385759 2405.97652855023670782 84.009497869018190385759 151.47914266323542165
86.009497869018190385759 2407.90020753046655955 86.009497869018190385759 150.93147905804940478
88.009497869018190385759 2409.75280780207276621 88.009497869018190385759 150.40592460201520453
91.009497869018218807469 2412.40704688496634844 91.009497869018218807469 149.63603139816103749
94.009497869018190385759 2414.92219660800719794 94.009497869018190385759 148.89649692951093130
97.009497869018190385759 2417.30906587217532433 97.009497869018190385759 148.18171906707846119
99.504748934509109403734 2419.20368218577368680 99.504748934509109403734 147.72323719282104548
nan nan nan nan

