Time Pressure difference Time.1 Pressure.1 difference.1
(hr) (psi) (hr) (psi)
0.000200000000006639311 0.22304849379986891 0.000200000000006639311 0.17780628326910561
0.000399999999999067768 0.44597066153242876 0.000399999999999067768 0.46541298448075352
0.000600000000005707079 0.66878576828847702 0.000600000000005707079 0.68094519119588426
0.000799999999998135536 0.89150304193376628 0.000799999999998135536 0.90036663387960614
0.001007140329434719206 1.12207311955667222 0.001007140329434719206 1.13070716195294607
0.001267914553963578328 1.41220750362994996 0.001267914553963578328 1.42273375930088841
0.001596209851982166583 1.77725762819593158 0.001596209851982166583 1.78998436634510116
0.002009509145210586212 2.23651214538120024 0.002009509145210586212 2.25173064100121501
0.002529822128138903281 2.81419633726555984 0.002529822128138903281 2.83212466026922183
0.003184857364445292660 3.54071959293555283 0.003184857364445292660 3.56140406642078577
0.004009497869020606231 4.45422944712199786 0.004009497869020606231 4.47737794649547016
0.005047658755842121536 5.60254275740138930 0.005047658755842121536 5.62724943095366914
0.006354625877804664924 7.04553817847050823 0.006354625877804664924 7.06983666048849280
0.008000000000009777068 8.85810871460456717 0.008000000000009777068 8.87825632455672142
0.010071403294347192059 11.13378778492770671 0.010071403294347192059 11.14313033344873283
0.012679145539692626699 13.98917502114332834 0.012679145539692626699 13.97636141614060890
0.015962098519750611558 17.56929562532438638 0.015962098519750611558 17.51548989501597120
0.020095091452091651263 22.05402408520624036 0.020095091452091651263 21.92858006219868017
0.025298221281346400247 27.66568070609074681 0.025298221281346400247 27.41947364952781285
0.031848573644282396344 34.67785449210803961 0.031848573644282396344 34.23306616969441762
0.040094978690191851456 43.42539872164874737 0.040094978690191851456 42.65997756644211591
0.050476587558421215363 54.31535806661079846 0.050476587558421215363 53.03956144027316100
0.063546258777947173257 67.83828002686507830 0.063546258777947173257 65.75958094067311777
0.079999999999998294697 84.57888949186612138 0.079999999999998294697 81.25002948813607873
0.100714032943542974863 105.22440477692884997 0.100714032943542974863 99.96746352812806435
0.126791455396897845276 130.56778544159411126 0.126791455396897845276 122.36486346171263051
0.159620985197506115583 161.50187944732743972 0.159620985197506115583 148.84057512455166261
0.200950914520774404082 198.99878106320736038 0.200950914520774404082 179.65865858338543148
0.252982212813464002465 244.06684261275054837 0.252982212813464002465 214.83280186683370516
0.318485736442795541734 297.67609184991903248 0.318485736442795541734 253.96860022794496103
0.400949786901819038576 360.64223735233991874 0.400949786901819038576 296.06783244239795749
0.504765875584169521062 433.46195443193477104 0.504765875584169521062 339.31867524558020932
0.635462587779443310865 516.10110870265236827 0.635462587779443310865 380.93273770734953132
0.799999999999997157829 607.75725548158936817 0.799999999999997157829 417.14074359372870049
1.007140329435330272645 706.65012679897961334 1.007140329435330272645 443.49930523218529288
1.267914553968893187630 809.93161283892550273 1.267914553968893187630 455.63606033157583397
1.596209851975103788391 913.82611153503137302 1.596209851975103788391 450.40511938074439513
2.009509145207687197399 1014.07638574344866811 2.009509145207687197399 427.13999491954746190
2.529822128134711078928 1106.65702745694375153 2.529822128134711078928 388.42515659692804775
3.184857364427983839050 1188.56101528697695358 3.184857364427983839050 339.82241653376979684
4.009497869018190385759 1258.36435622856151895 4.009497869018190385759 288.40749491394933557
5.009497869018190385759 1314.59465023178995580 5.009497869018190385759 241.98517960339987098
6.009497869018190385759 1353.28737686755653158 6.009497869018190385759 209.42239046898995980
7.009497869018204596614 1381.75864030405068661 7.009497869018204596614 186.76877392037494019
8.009497869018190385759 1403.84148856435763264 8.009497869018190385759 170.82484608594353404
9.009497869018204596614 1421.68483370155672674 9.009497869018204596614 159.65099653436482185
10.009497869018190385759 1436.56625034756143577 10.009497869018190385759 151.67932777151435175
11.009497869018190385759 1449.28667499831567511 11.009497869018190385759 145.21316882046613728
12.009497869018190385759 1460.37088336809438260 12.009497869018190385759 140.28273695645626162
13.009497869018190385759 1470.17753477843189103 13.009497869018190385759 136.44343143908776028
14.009497869018204596614 1478.96043176071543712 14.009497869018204596614 133.39415050088871340
15.009497869018190385759 1486.90487506827935249 15.009497869018190385759 130.92644594726547780
16.009497869018190385759 1494.14991650311890226 16.009497869018190385759 128.89438645128106486
17.009497869018190385759 1500.80248227821607543 17.009497869018190385759 127.23264618608754972
18.009497869018190385759 1506.94653810559952944 18.009497869018190385759 125.77775178709983095
19.009497869018204596614 1512.64901291975547792 19.009497869018204596614 124.57441228675341449
20.009497869018190385759 1517.96439531891496699 20.009497869018190385759 123.47070306147138297
21.009497869018204596614 1522.93770219907423780 21.009497869018204596614 122.49843485667152265
22.009497869018190385759 1527.60626642176657697 22.009497869018190385759 121.63281185482375690
23.009497869018190385759 1532.00168749973886406 23.009497869018190385759 120.86818204113076547
24.009497869018190385759 1536.15091927111939185 24.009497869018190385759 120.15971400205033603
25.009497869018190385759 1540.07696919194154361 25.009497869018190385759 119.51218592293810161
26.009497869018204596614 1543.79995629475274654 26.009497869018204596614 118.92922721434879918
27.009497869018190385759 1547.33720288079871352 27.009497869018190385759 118.37384104942850627
28.009497869018190385759 1550.70410077478959465 28.009497869018190385759 117.85591011744278944
29.009497869018190385759 1553.91405728171707779 29.009497869018190385759 117.37398148623900340
30.009497869018190385759 1556.97910757068439125 30.009497869018190385759 116.91521561279907360
31.009497869018190385759 1559.90987523546209559 31.009497869018190385759 116.48097197008986825
32.009497869018190385759 1562.71592550211607886 32.009497869018190385759 116.06769378806099269
33.009497869018190385759 1565.40584613962369076 33.009497869018190385759 115.67533638006818819
34.009497869018190385759 1567.98735034005062516 34.009497869018190385759 115.29613548140291357
35.009497869018190385759 1570.46748923126688169 35.009497869018190385759 114.93025783860795741
36.009497869018190385759 1572.85259490252883552 36.009497869018190385759 114.57787264353088119
37.009497869018190385759 1575.14847341079871512 37.009497869018190385759 114.23691426042873331
38.009497869018190385759 1577.36043396575632869 38.009497869018190385759 113.90611507997968488
39.009497869018190385759 1579.49330740660343508 39.009497869018190385759 113.58194115460310059
40.009497869018190385759 1581.55155659542901958 40.009497869018190385759 113.26204091966941689
41.009497869018190385759 1583.53929113628851155 41.009497869018190385759 112.95847436744928416
42.009497869018190385759 1585.46028340482462227 42.009497869018190385759 112.65470927553772640
43.009497869018190385759 1587.31803387588706755 43.009497869018190385759 112.36424422844625326
44.009497869018218807469 1589.11578980383319504 44.009497869018218807469 112.07168361862487416
46.009497869018190385759 1592.54312231542508016 46.009497869018190385759 111.50390539857673389
48.009497869018190385759 1595.76392740101846357 48.009497869018190385759 110.95757214275660374
50.009497869018190385759 1598.79704116499806332 50.009497869018190385759 110.41671483127653630
52.009497869018190385759 1601.65893676556402170 52.009497869018190385759 109.89117664587604395
54.009497869018190385759 1604.36415494121956726 54.009497869018190385759 109.38349849073760822
56.009497869018190385759 1606.92551291772178956 56.009497869018190385759 108.88600587330688541
58.009497869018218807469 1609.35447118103934372 58.009497869018218807469 108.37452781404718394
60.009497869018190385759 1611.66118931331880049 60.009497869018190385759 107.89636518787803254
62.009497869018190385759 1613.85485052328294842 62.009497869018190385759 107.42674980024534648
64.009497869018190385759 1615.94365703253470201 64.009497869018190385759 106.96519866679896893
66.009497869018190385759 1617.93504482942398681 66.009497869018190385759 106.50385483384454233
68.009497869018190385759 1619.83576654720582155 68.009497869018190385759 106.04582474089191635
70.009497869018190385759 1621.65187310435021573 70.009497869018190385759 105.60995935573312465
72.009497869018218807469 1623.38899043281526247 72.009497869018218807469 105.17479852762357950
74.009497869018190385759 1625.05218020095685461 74.009497869018190385759 104.75249187477578516
76.009497869018190385759 1626.64607358777584523 76.009497869018190385759 104.33900441981225526
78.009497869018190385759 1628.17498777895525564 78.009497869018190385759 103.93122506207522804
80.009497869018190385759 1629.64281570319144521 80.009497869018190385759 103.53489386037419706
82.009497869018218807469 1631.05315733374459342 82.009497869018218807469 103.14873630689533002
84.009497869018190385759 1632.40939152269243095 84.009497869018190385759 102.77572211075214170
86.009497869018190385759 1633.71457118522789642 86.009497869018190385759 102.40414275330945770
88.009497869018190385759 1634.97152529355821571 88.009497869018190385759 102.04756403377234619
91.009497869018218807469 1636.77237611435680265 91.009497869018218807469 101.52520611318266219
94.009497869018190385759 1638.47885744543259534 94.009497869018190385759 101.02344601799728707
97.009497869018190385759 1640.09830292086826375 97.009497869018190385759 100.53848281006841603
99.504748934509109403734 1641.38376411591707438 99.504748934509109403734 100.22741156373682259
nan nan nan nan

