Time Pressure difference Time.1 Pressure.1 difference.1
(hr) (psi) (hr) (psi)
0.000200000000006639311 0.86639358972262515 0.000200000000006639311 0.69065798836992143
0.000399999999999067768 1.73229648751962073 0.000399999999999067768 1.80781685389725544
0.000600000000005707079 2.59778352532949475 0.000600000000005707079 2.64501471654819253
0.000799999999998135536 3.46289054721287570 0.000799999999998135536 3.49731964876369350
0.001007140329434719206 4.35850043827796974 0.001007140329434719206 4.39203789400379474
0.001267914553963578328 5.48547765402529119 0.001267914553963578328 5.52636508743367383
0.001596209851982166583 6.90345220504464496 0.001596209851982166583 6.95288703494496474
0.002009509145210586212 8.68734754978294532 0.002009509145210586212 8.74646118388904803
0.002529822128138903281 10.93126263840838774 0.002529822128138903281 11.00090213186664023
0.003184857364445292660 13.75331752330563617 0.003184857364445292660 13.83366281023894651
0.004009497869020606231 17.30168975542537524 0.004009497869020606231 17.39160612799173578
0.005047658755842121536 21.76211571065241301 0.005047658755842121536 21.85808454336854467
0.006354625877804664924 27.36718374547686139 0.006354625877804664924 27.46156702824075069
0.008000000000009777068 34.40780288023640310 0.008000000000009777068 34.48606281292367726
0.010071403294347192059 43.24728762727515630 0.010071403294347192059 43.28357715343332046
0.012679145539692626699 54.33854924257538954 0.012679145539692626699 54.28877699329243711
0.015962098519750611558 68.24491323120405184 0.015962098519750611558 68.03591410713293897
0.020095091452091651263 85.66507116678991451 0.020095091452091651263 85.17780539085383396
0.025298221281346400247 107.46258811582264059 0.025298221281346400247 106.50623906402408636
0.031848573644282396344 134.70017360553907793 0.031848573644282396344 132.97246971138764593
0.040094978690191851456 168.67850772103113854 0.040094978690191851456 165.70536062188895698
0.050476587558421215363 210.97868562440987716 0.050476587558421215363 206.02307260941924483
0.063546258777947173257 263.50615488047219515 0.063546258777947173257 255.43180507179371830
0.079999999999998294697 328.53217895907698676 0.079999999999998294697 315.60179364608080732
0.100714032943542974863 408.72613945068258090 0.100714032943542974863 388.30645348052729560
0.126791455396897845276 507.16815165932638365 0.126791455396897845276 475.30530919269716605
0.159620985197506115583 627.32633024129802379 0.159620985197506115583 578.14566680842654023
0.200950914520774404082 772.97660853283150573 0.200950914520774404082 697.85322233322472130
0.252982212813464002465 948.03575805922889685 0.252982212813464002465 834.48114456482801415
0.318485736442795541734 1156.27168513345418432 0.318485736442795541734 986.49743596003997936
0.400949786901819038576 1400.85286971561890823 0.400949786901819038576 1150.02467750946379965
0.504765875584169521062 1683.70856180464215868 0.504765875584169521062 1318.02515272630216714
0.635462587779443310865 2004.70617223679505514 0.635462587779443310865 1479.66783564683146324
0.799999999999997157829 2360.72874237438281853 0.799999999999997157829 1620.31161970549101170
1.007140329435330272645 2744.86112685723037430 1.007140329435330272645 1722.69692815934649843
1.267914553968893187630 3146.04033196015461726 1.267914553968893187630 1769.84007016854639005
1.596209851975103788391 3549.60067950734173792 1.596209851975103788391 1749.52137789311518645
2.009509145207687197399 3939.00566253332090128 2.009509145207687197399 1659.15199519122734273
2.529822128134711078928 4298.61927456223293120 2.529822128134711078928 1508.77085081120185350
3.184857364427983839050 4616.76125714083173079 3.184857364427983839050 1319.98184929721787739
4.009497869018190385759 4887.90035385795636103 4.009497869018190385759 1120.26941121425852543
5.009497869018190385759 5106.31727944512476824 5.009497869018190385759 939.94989539977336790
6.009497869018190385759 5256.61253477286027191 6.009497869018190385759 813.46533014260637628
7.009497869018204596614 5367.20427073327118705 7.009497869018204596614 725.47124496682954486
8.009497869018190385759 5452.98130446080722322 8.009497869018190385759 663.53979393831048128
9.009497869018204596614 5522.29071598253995035 9.009497869018204596614 620.13689325475286296
10.009497869018190385759 5580.09502467093807354 10.009497869018190385759 589.17231421696442339
11.009497869018190385759 5629.50533087032272306 11.009497869018190385759 564.05562963472107185
12.009497869018190385759 5672.56003576935199817 12.009497869018190385759 544.90421332713049196
13.009497869018190385759 5710.65228994159588183 13.009497869018190385759 529.99109003018793373
14.009497869018204596614 5744.76794575710846402 14.009497869018204596614 518.14668160979533695
15.009497869018190385759 5775.62677218686076230 15.009497869018190385759 508.56130683247528168
16.009497869018190385759 5803.76889208860848157 16.009497869018190385759 500.66812050665515699
17.009497869018190385759 5829.60964198366673372 17.009497869018190385759 494.21337567058640161
18.009497869018190385759 5853.47517226839227078 18.009497869018190385759 488.56208809839898777
19.009497869018204596614 5875.62545690099068452 19.009497869018204596614 483.88792235265043473
20.009497869018190385759 5896.27214748877122474 20.009497869018190385759 479.60075330967055152
21.009497869018204596614 5915.59010443744864460 21.009497869018204596614 475.82414434998156594
22.009497869018190385759 5933.72434083977168484 22.009497869018190385759 472.46178037638628666
23.009497869018190385759 5950.79759957921032765 23.009497869018190385759 469.49170710752662217
24.009497869018190385759 5966.91457821356470959 24.009497869018190385759 466.73978461244178106
25.009497869018190385759 5982.16464525675837649 25.009497869018190385759 464.22457293200960748
26.009497869018204596614 5996.62594963745414134 26.009497869018204596614 461.96016988857121532
27.009497869018190385759 6010.36577686161035672 27.009497869018190385759 459.80286765841447050
28.009497869018190385759 6023.44391383043330279 28.009497869018190385759 457.79105385170873888
29.009497869018190385759 6035.91243891890826490 29.009497869018190385759 455.91908480289106365
30.009497869018190385759 6047.81810067568039813 30.009497869018190385759 454.13708751090979376
31.009497869018190385759 6059.20216462729877094 31.009497869018190385759 452.45034261516252627
32.009497869018190385759 6070.10178525262290350 32.009497869018190385759 450.84503445287867862
33.009497869018190385759 6080.55032026622393460 33.009497869018190385759 449.32098944645889560
34.009497869018190385759 6090.57773023877871310 34.009497869018190385759 447.84804864231500687
35.009497869018190385759 6100.21140406622635055 35.009497869018190385759 446.42685973877195238
36.009497869018190385759 6109.47593766243517166 36.009497869018190385759 445.05807993252102506
37.009497869018190385759 6118.39388365911054279 37.009497869018190385759 443.73368561606832827
38.009497869018190385759 6126.98586476997115824 38.009497869018190385759 442.44875297857782925
39.009497869018190385759 6135.27064556072400592 39.009497869018190385759 441.18955500724558760
40.009497869018190385759 6143.26556125314073142 40.009497869018190385759 439.94695745289499200
41.009497869018190385759 6150.98657489879224158 41.009497869018190385759 438.76780528550261806
42.009497869018190385759 6158.44833964336612553 42.009497869018190385759 437.58788192475662981
43.009497869018190385759 6165.66445248059153528 43.009497869018190385759 436.45962030527067554
44.009497869018218807469 6172.64752681265053980 44.009497869018218807469 435.32321883204662072
46.009497869018190385759 6185.96041168043848302 46.009497869018190385759 433.11778179074019590
48.009497869018190385759 6198.47107621067243599 48.009497869018190385759 430.99564403212542629
50.009497869018190385759 6210.25268601777224831 50.009497869018190385759 428.89477663939879903
52.009497869018190385759 6221.36922825728470343 52.009497869018190385759 426.85341376252597456
54.009497869018190385759 6231.87718393212435330 54.009497869018190385759 424.88142510767852400
56.009497869018190385759 6241.82633935577814555 56.009497869018190385759 422.94900042579280353
58.009497869018218807469 6251.26121081888777553 58.009497869018218807469 420.96225169560864288
60.009497869018190385759 6260.22126147449489508 60.009497869018190385759 419.10491104694409614
62.009497869018190385759 6268.74216192066251097 62.009497869018190385759 417.28077067931121746
64.009497869018190385759 6276.85577227936028066 64.009497869018190385759 415.48795452290198682
66.009497869018190385759 6284.59097637100785505 66.009497869018190385759 413.69594358967225389
68.009497869018190385759 6291.97400364045279275 68.009497869018190385759 411.91680431070329860
70.009497869018190385759 6299.02835784189755941 70.009497869018190385759 410.22376003476938422
72.009497869018218807469 6305.77589194239044446 72.009497869018218807469 408.53345248976177118
74.009497869018190385759 6312.23626712386612780 74.009497869018190385759 406.89307478224469605
76.009497869018190385759 6318.42747240624885308 76.009497869018190385759 405.28695373516626432
78.009497869018190385759 6324.36627715631584579 78.009497869018190385759 403.70300481201610410
80.009497869018190385759 6330.06780278739643109 80.009497869018190385759 402.16352428600572466
82.009497869018218807469 6335.54603277771639114 82.009497869018218807469 400.66356155029120600
84.009497869018190385759 6340.81409169821927208 84.009497869018190385759 399.21465193019764683
86.009497869018190385759 6345.88383807396348857 86.009497869018190385759 397.77131569475801598
88.009497869018190385759 6350.76626056191798853 88.009497869018190385759 396.38624686252614993
91.009497869018218807469 6357.76135647404953488 91.009497869018218807469 394.35723717844462044
94.009497869018190385759 6364.38989030110133172 94.009497869018190385759 392.40823621169840862
97.009497869018190385759 6370.68034828591044061 97.009497869018190385759 390.52447987045229638
99.504748934509109403734 6375.67350165921561711 99.504748934509109403734 389.31617700690310357
nan nan nan nan

