Time Pressure difference Time.1 Pressure.1 difference.1
(hr) (psi) (hr) (psi)
0.000200000000006639311 0.89635532769574189 0.000200000000006639311 0.71454241448069677
0.000399999999999067768 1.79220299429263363 0.000399999999999067768 1.87033501599168495
0.000600000000005707079 2.68762041957720044 0.000600000000005707079 2.73648496611181846
0.000799999999998135536 3.58264468717412754 0.000799999999998135536 3.61826442047886454
0.001007140329434719206 4.50922667821841827 0.001007140329434719206 4.54392393068404044
0.001267914553963578328 5.67517716943826844 0.001267914553963578328 5.71747857748901733
0.001596209851982166583 7.14218830435454688 0.001596209851982166583 7.19333269609579951
0.002009509145210586212 8.98777455438638917 0.002009509145210586212 9.04893246402353846
0.002529822128138903281 11.30928901207092707 0.002529822128138903281 11.38133678772369883
0.003184857364445292660 14.22893657310294913 0.003184857364445292660 14.31206037139994791
0.004009497869020606231 17.90001908414325271 0.004009497869020606231 17.99304495662545378
0.005047658755842121536 22.51469608104961395 0.005047658755842121536 22.61398372066082629
0.006354625877804664924 28.31359932168931692 0.006354625877804664924 28.41124657964964939
0.008000000000009777068 35.59769808070566910 0.008000000000009777068 35.67866440875965850
0.010071403294347192059 44.74287106107141909 0.010071403294347192059 44.78041555643390126
0.012679145539692626699 56.21769215586330404 0.012679145539692626699 56.16619867605759708
0.015962098519750611558 70.60496786744165831 0.015962098519750611558 70.38874110795597971
0.020095091452091651263 88.62755201405641969 0.020095091452091651263 88.12343554846262350
0.025298221281346400247 111.17887358380498597 0.025298221281346400247 110.18945194231886830
0.031848573644282396344 139.35839286567298245 0.031848573644282396344 137.57094128642120268
0.040094978690191851456 174.51177023587948156 0.040094978690191851456 171.43580536961999883
0.050476587558421215363 218.27477849902922458 0.050476587558421215363 213.14778981781415723
0.063546258777947173257 272.61875966020033957 0.063546258777947173257 264.26518161606321655
0.079999999999998294697 339.89352232365598638 0.079999999999998294697 326.51597671165131942
0.100714032943542974863 422.86076098788197442 0.100714032943542974863 401.73491873057434987
0.126791455396897845276 524.70710791267492823 0.126791455396897845276 491.74238040397199256
0.159620985197506115583 649.02061255511807758 0.159620985197506115583 598.13917689978427461
0.200950914520774404082 799.70778807863541715 0.200950914520774404082 721.98647497875413137
0.252982212813464002465 980.82085632064308811 0.252982212813464002465 863.33928212902958421
0.318485736442795541734 1196.25802582971186894 0.318485736442795541734 1020.61262106528636195
0.400949786901819038576 1449.29734935996316381 0.400949786901819038576 1189.79498335993503133
0.504765875584169521062 1741.93479448952894018 0.504765875584169521062 1363.60527328167881933
0.635462587779443310865 2074.03318683864381455 0.635462587779443310865 1530.83790489110242561
0.799999999999997157829 2442.36777669280536429 0.799999999999997157829 1676.34545093449924025
1.007140329435330272645 2839.78427821828745437 1.007140329435330272645 1782.27146169799812014
1.267914553968893187630 3254.83711577433905404 1.267914553968893187630 1831.04491409368347377
1.596209851975103788391 3672.35344075831653754 1.596209851975103788391 1810.02355810843914696
2.009509145207687197399 4075.22487852870881397 2.009509145207687197399 1716.52900943415147594
2.529822128134711078928 4447.27469616092639626 2.529822128134711078928 1560.94736438392374112
3.184857364427983839050 4776.41870695550005621 3.184857364427983839050 1365.62963659279898820
4.009497869018190385759 5056.93437185880884499 4.009497869018190385759 1159.01071650120684353
5.009497869018190385759 5282.90462052103612223 5.009497869018190385759 972.45536728679712724
6.009497869018190385759 5438.39740629238258407 6.009497869018190385759 841.59669602650058096
7.009497869018204596614 5552.81364032635337935 7.009497869018204596614 750.55958773225302139
8.009497869018190385759 5641.55702680527247139 8.009497869018190385759 686.48641505433272414
9.009497869018204596614 5713.26330558424160699 9.009497869018204596614 641.58254950563764396
10.009497869018190385759 5773.06661053852076293 10.009497869018190385759 609.54714929074987140
11.009497869018190385759 5824.18563049696240341 11.009497869018190385759 583.56187619269417155
12.009497869018190385759 5868.72925890834903839 12.009497869018190385759 563.74816306754996731
13.009497869018190385759 5908.13882446407205862 13.009497869018190385759 548.31931216379666694
14.009497869018204596614 5943.43427241153221985 14.009497869018204596614 536.06529884125802710
15.009497869018190385759 5975.36026286767446436 15.009497869018190385759 526.14844136270505714
16.009497869018190385759 6004.47559729051954491 16.009497869018190385759 517.98229182100635626
17.009497869018190385759 6031.20997542402437830 17.009497869018190385759 511.30432814334443492
18.009497869018190385759 6055.90082664078636299 18.009497869018190385759 505.45760699517353487
19.009497869018204596614 6078.81711535289741732 19.009497869018204596614 500.62179862997555801
20.009497869018190385759 6100.17781253161047061 20.009497869018190385759 496.18637013882346309
21.009497869018204596614 6120.16382562836952275 21.009497869018204596614 492.27915798744493259
22.009497869018190385759 6138.92518259791995661 22.009497869018190385759 488.80051629718349204
23.009497869018190385759 6156.58887103439883504 23.009497869018190385759 485.72773156081285606
24.009497869018190385759 6173.26320916043096076 24.009497869018190385759 482.88064171719486239
25.009497869018190385759 6189.04065604373590759 25.009497869018190385759 480.27844865300130550
26.009497869018204596614 6204.00206316958519892 26.009497869018204596614 477.93573772333445504
27.009497869018190385759 6218.21704292022423033 27.009497869018190385759 475.70383138147201407
28.009497869018190385759 6231.74744975540488667 28.009497869018190385759 473.62244476300702445
29.009497869018190385759 6244.64716303137811337 29.009497869018190385759 471.68573903238592493
30.009497869018190385759 6256.96454796129455644 30.009497869018190385759 469.84211647382312549
31.009497869018190385759 6268.74229712161468342 31.009497869018190385759 468.09704034248795779
32.009497869018190385759 6280.01884987231005653 32.009497869018190385759 466.43621720052863111
33.009497869018190385759 6290.82871750886079099 33.009497869018190385759 464.85946746766211390
34.009497869018190385759 6301.20289670236797974 34.009497869018190385759 463.33558922936913405
35.009497869018190385759 6311.16972351520325901 35.009497869018190385759 461.86525258276407158
36.009497869018190385759 6320.75464444038607326 36.009497869018190385759 460.44913745180127762
37.009497869018190385759 6329.98099202772482386 37.009497869018190385759 459.07894275552888530
38.009497869018190385759 6338.87010216835642495 38.009497869018190385759 457.74957440723181890
39.009497869018190385759 6347.44138834668592608 39.009497869018190385759 456.44683068472960485
40.009497869018190385759 6355.71278527342201414 40.009497869018190385759 455.16126145702969552
41.009497869018190385759 6363.70080803650216694 41.009497869018190385759 453.94133169307042408
42.009497869018190385759 6371.42061651864150917 42.009497869018190385759 452.72060406624677853
43.009497869018190385759 6378.88627792660554405 43.009497869018190385759 451.55332475386796887
44.009497869018218807469 6386.11084186092648451 44.009497869018218807469 450.37762409424999532
46.009497869018190385759 6399.88411467803234700 46.009497869018190385759 448.09591833681770368
48.009497869018190385759 6412.82742466752551991 48.009497869018190385759 445.90039252891369870
50.009497869018190385759 6425.01646766680187284 50.009497869018190385759 443.72687266151052654
52.009497869018190385759 6436.51744364370370022 52.009497869018190385759 441.61491510301681274
54.009497869018190385759 6447.38878683467646624 54.009497869018190385759 439.57473087509106335
56.009497869018190385759 6457.68200527009776124 56.009497869018190385759 437.57547882668478678
58.009497869018218807469 6467.44315470887795527 58.009497869018218807469 435.52002408854031046
60.009497869018190385759 6476.71306302404536837 60.009497869018190385759 433.59845263934562354
62.009497869018190385759 6485.52863437901305588 62.009497869018190385759 431.71122960770242116
64.009497869018190385759 6493.92283068671531510 64.009497869018190385759 429.85641404530781529
66.009497869018190385759 6501.92553463167678274 66.009497869018190385759 428.00243155242748117
68.009497869018190385759 6509.56388272888307256 68.009497869018190385759 426.16176584306191444
70.009497869018190385759 6516.86219154248192353 70.009497869018190385759 424.41017248553947638
72.009497869018218807469 6523.84306976172410941 72.009497869018218807469 422.66141050093511922
74.009497869018190385759 6530.52685849414410768 74.009497869018190385759 420.96430503408026880
76.009497869018190385759 6536.93216885833771812 76.009497869018190385759 419.30264089603656430
78.009497869018190385759 6543.07635014154857345 78.009497869018190385759 417.66391564125007108
80.009497869018190385759 6548.97504668782494264 80.009497869018190385759 416.07119659560822811
82.009497869018218807469 6554.64272555389106856 82.009497869018218807469 414.51936194972489602
84.009497869018190385759 6560.09296518634255335 84.009497869018190385759 413.02034594507483689
86.009497869018190385759 6565.33803420332242240 86.009497869018190385759 411.52709606460553005
88.009497869018190385759 6570.38930127299317974 88.009497869018190385759 410.09412859840603005
91.009497869018218807469 6577.62630251926202618 91.009497869018218807469 407.99495143245422923
94.009497869018190385759 6584.48406518183128355 94.009497869018190385759 405.97854985590703336
97.009497869018190385759 6590.99206061856421002 97.009497869018190385759 404.02964920314803976
99.504748934509109403734 6596.15788788374175056 99.504748934509109403734 402.77956064979309758
nan nan nan nan

