Time Pressure difference Time.1 Pressure.1 difference.1
(hr) (psi) (hr) (psi)
0.000200000000006639311 0.69161678487944422 0.000200000000006639311 0.55133216939039842
0.000399999999999067768 1.38284186467704595 0.000399999999999067768 1.44312757501308275
0.000600000000005707079 2.07373497555121045 0.000600000000005707079 2.11143826076037300
0.000799999999998135536 2.76432473077223761 0.000799999999998135536 2.79180848042519614
0.001007140329434719206 3.47926403862535283 0.001007140329434719206 3.50603601336902315
0.001267914553963578328 4.37889714744958347 0.001267914553963578328 4.41153639544417242
0.001596209851982166583 5.51082495907022096 0.001596209851982166583 5.55028734489842979
0.002009509145210586212 6.93485668959618451 0.002009509145210586212 6.98204538310451372
0.002529822128138903281 8.72610879204358270 0.002529822128138903281 8.78169997270046032
0.003184857364445292660 10.97887306615464276 0.003184857364445292660 11.04301037013310882
0.004009497869020606231 13.81143533790440259 0.004009497869020606231 13.88321296096170165
0.005047658755842121536 17.37206355000207125 0.005047658755842121536 17.44867267583022041
0.006354625877804664924 21.84642621757086545 0.006354625877804664924 21.92176964502215597
0.008000000000009777068 27.46674754416565634 0.008000000000009777068 27.52922017054714487
0.010071403294347192059 34.52305093013031723 0.010071403294347192059 34.55201980259663230
0.012679145539692626699 43.37688224839591555 0.012679145539692626699 43.33715051049569666
0.015962098519750611558 54.47792785315135689 0.015962098519750611558 54.31108993566518706
0.020095091452091651263 68.38393289106859640 0.020095091452091651263 67.99496280480262556
0.025298221281346400247 85.78425621925900657 0.025298221281346400247 85.02083060730453212
0.031848573644282396344 107.52722792142455432 0.031848573644282396344 106.14805219035844175
0.040094978690191851456 134.65114305108249937 0.040094978690191851456 132.27776626012462202
0.050476587558421215363 168.41814385579692726 0.050476587558421215363 164.46222222711566019
0.063546258777947173257 210.34929366539134321 0.063546258777947173257 203.90377523022146988
0.079999999999998294697 262.25767599903264227 0.079999999999998294697 251.93572576358613446
0.100714032943542974863 326.27418048368605241 0.100714032943542974863 309.97373952191946955
0.126791455396897845276 404.85757351479372801 0.126791455396897845276 379.42239379359403983
0.159620985197506115583 500.77635007734738792 0.159620985197506115583 461.51685794217331704
0.200950914520774404082 617.04472784897495785 0.200950914520774404082 557.07591523430335201
0.252982212813464002465 756.78935153431234539 0.252982212813464002465 666.14200877365226461
0.318485736442795541734 923.01803107195053144 0.318485736442795541734 787.49218951276975531
0.400949786901819038576 1118.26007179027806160 0.400949786901819038576 918.03122671504740993
0.504765875584169521062 1344.05553780946934239 0.504765875584169521062 1052.14111615327283289
0.635462587779443310865 1600.29858705934361751 0.635462587779443310865 1181.17576505525175889
0.799999999999997157829 1884.50104218358501385 0.799999999999997157829 1293.44760420294232972
1.007140329435330272645 2191.14274391773142270 1.007140329435330272645 1375.17881585054465177
1.267914553968893187630 2511.39242637741472208 1.267914553968893187630 1412.81181393858037154
1.596209851975103788391 2833.54290554332465035 1.596209851975103788391 1396.59199330372598524
2.009509145207687197399 3144.39356922688739360 2.009509145207687197399 1324.45274544083554247
2.529822128134711078928 3431.46264856985135339 2.529822128134711078928 1204.40785497032561580
3.184857364427983839050 3685.42613322193210479 3.184857364427983839050 1053.70309007299510995
4.009497869018190385759 3901.86858218632278295 4.009497869018190385759 894.27846370705924528
5.009497869018190385759 4076.22445650230383762 5.009497869018190385759 750.33464272546757456
6.009497869018190385759 4196.20078424231178360 6.009497869018190385759 649.36569581989044764
7.009497869018204596614 4284.48294810696279455 7.009497869018204596614 579.12257883519248480
8.009497869018190385759 4352.95625745142206142 8.009497869018190385759 529.68450409484728425
9.009497869018204596614 4408.28394330594710482 9.009497869018204596614 495.03723179125807974
10.009497869018190385759 4454.42744044337086962 10.009497869018190385759 470.31910961988228337
11.009497869018190385759 4493.87024971492701297 11.009497869018190385759 450.26919137987817976
12.009497869018190385759 4528.23956745853138273 12.009497869018190385759 434.98117317468341980
13.009497869018190385759 4558.64750522715257830 13.009497869018190385759 423.07646091746983075
14.009497869018204596614 4585.88104027296503773 14.009497869018204596614 413.62141442626312937
15.009497869018190385759 4610.51474321544810664 15.009497869018190385759 405.96968873946872236
16.009497869018190385759 4632.97977841079136851 16.009497869018190385759 399.66878783960657984
17.009497869018190385759 4653.60769691491623234 17.009497869018190385759 394.51615291283121678
18.009497869018190385759 4672.65885509609415749 18.009497869018190385759 390.00489453388041738
19.009497869018204596614 4690.34078259819762025 19.009497869018204596614 386.27364406825410015
20.009497869018190385759 4706.82243473887410801 20.009497869018190385759 382.85132180627880416
21.009497869018204596614 4722.24339749041246250 21.009497869018204596614 379.83656479811207873
22.009497869018190385759 4736.71943058391025261 22.009497869018190385759 377.15248750506918896
23.009497869018190385759 4750.34851609060842748 23.009497869018190385759 374.78156446335697183
24.009497869018190385759 4763.21423102350763656 24.009497869018190385759 372.58478483471577647
25.009497869018190385759 4775.38791566605686967 25.009497869018190385759 370.57696455955806414
26.009497869018204596614 4786.93195403335630544 26.009497869018204596614 368.76935751911878469
27.009497869018190385759 4797.90005818635654578 27.009497869018190385759 367.04724594057864806
28.009497869018190385759 4808.33995426809724449 28.009497869018190385759 365.44127353580205408
29.009497869018190385759 4818.29321492950293759 29.009497869018190385759 363.94693513083814196
30.009497869018190385759 4827.79715817626401986 30.009497869018190385759 362.52441856058214853
31.009497869018190385759 4836.88472507712231163 31.009497869018190385759 361.17793920576366418
32.009497869018190385759 4845.58557497111360135 32.009497869018190385759 359.89646842492044243
33.009497869018190385759 4853.92633635084803245 33.009497869018190385759 358.67986765610692146
34.009497869018190385759 4861.93092586784405285 34.009497869018190385759 357.50406188449932188
35.009497869018190385759 4869.62120728053287166 35.009497869018190385759 356.36956814881796163
36.009497869018190385759 4877.01681479104991013 36.009497869018190385759 355.27691107005279036
37.009497869018190385759 4884.13575150885753828 37.009497869018190385759 354.21968563588160350
38.009497869018190385759 4890.99447994605725398 38.009497869018190385759 353.19396131142951845
39.009497869018190385759 4897.60797930928129063 39.009497869018190385759 352.18878022192228627
40.009497869018190385759 4903.99008780149870290 40.009497869018190385759 351.19685076210930674
41.009497869018190385759 4910.15354826214752393 41.009497869018190385759 350.25556790802369278
42.009497869018190385759 4916.11005787093017716 42.009497869018190385759 349.31366943273076231
43.009497869018190385759 4921.87047071217148186 43.009497869018190385759 348.41301102178670135
44.009497869018218807469 4927.44485569770677102 44.009497869018218807469 347.50585480252715342
46.009497869018190385759 4938.07214419447063847 46.009497869018190385759 345.74531860528833249
48.009497869018190385759 4948.05904354569611314 48.009497869018190385759 344.05127780086093026
50.009497869018190385759 4957.46395973176640837 50.009497869018190385759 342.37421651041341875
52.009497869018190385759 4966.33797183650585794 52.009497869018190385759 340.74465594299624627
54.009497869018190385759 4974.72616700057278649 54.009497869018190385759 339.17047479777221497
56.009497869018190385759 4982.66828818890553521 56.009497869018190385759 337.62787642058964366
58.009497869018218807469 4990.19987146061066596 58.009497869018218807469 336.04191273684034513
60.009497869018190385759 4997.35241910211880167 60.009497869018190385759 334.55925175793521475
62.009497869018190385759 5004.15440591361220868 62.009497869018190385759 333.10309359702938536
64.009497869018190385759 5010.63126490312060923 64.009497869018190385759 331.67194064220132077
66.009497869018190385759 5016.80605318377274671 66.009497869018190385759 330.24143047360001901
68.009497869018190385759 5022.69970895794085664 68.009497869018190385759 328.82119537194472514
70.009497869018190385759 5028.33099458848937502 70.009497869018190385759 327.46968740527699993
72.009497869018218807469 5033.71735466294558137 72.009497869018218807469 326.12036409125073533
74.009497869018190385759 5038.87448413057882135 74.009497869018190385759 324.81089831320394978
76.009497869018190385759 5043.81674310239486658 76.009497869018190385759 323.52877863008950499
78.009497869018190385759 5048.55751807579144952 78.009497869018190385759 322.26435830815120198
80.009497869018190385759 5053.10888003489526454 80.009497869018190385759 321.03543581332445456
82.009497869018218807469 5057.48199158336501569 82.009497869018218807469 319.83805922026124335
84.009497869018190385759 5061.68732968416952644 84.009497869018190385759 318.68143684341424660
86.009497869018190385759 5065.73436065270198014 86.009497869018190385759 317.52926353731402287
88.009497869018190385759 5069.63185641398104053 88.009497869018190385759 316.42360340322693446
91.009497869018218807469 5075.21583787697909429 91.009497869018218807469 314.80390403005520739
94.009497869018190385759 5080.50720349684524990 94.009497869018190385759 313.24807328714831556
97.009497869018190385759 5085.52869301209557307 97.009497869018190385759 311.74432542972704141
99.504748934509109403734 5089.51458201614696009 99.504748934509109403734 310.77977242337794905
nan nan nan nan

