Time Pressure difference Time.1 Pressure.1 difference.1
(hr) (psi) (hr) (psi)
0.000200000000006639311 0.88720035220395621 0.000200000000006639311 0.70724439539129325
0.000399999999999067768 1.77389822833421285 0.000399999999999067768 1.85123224424060928
0.000600000000005707079 2.66017025744595692 0.000600000000005707079 2.70853572318959968
0.000799999999998135536 3.54605314440818953 0.000799999999998135536 3.58130907356589612
0.001007140329434719206 4.46317143823661411 0.001007140329434719206 4.49751430836507637
0.001267914553963578328 5.61721342861763606 0.001267914553963578328 5.65908278886099669
0.001596209851982166583 7.06924116289874327 0.001596209851982166583 7.11986318852193278
0.002009509145210586212 8.89597741409089338 0.002009509145210586212 8.95651068398244377
0.002529822128138903281 11.19378095345181734 0.002529822128138903281 11.26509286510071028
0.003184857364445292660 14.08360853010932523 0.003184857364445292660 14.16588333882297412
0.004009497869020606231 17.71719623370167795 0.004009497869020606231 17.80927198120959432
0.005047658755842121536 22.28474096787268977 0.005047658755842121536 22.38301452759929688
0.006354625877804664924 28.02441678451328499 0.006354625877804664924 28.12106671671915592
0.008000000000009777068 35.23411899167339101 0.008000000000009777068 35.31425836558755549
0.010071403294347192059 44.28588723407811756 0.010071403294347192059 44.32304826662817021
0.012679145539692626699 55.64350959902532878 0.012679145539692626699 55.59254205076824462
0.015962098519750611558 69.88384006192461584 0.015962098519750611558 69.66982174659337090
0.020095091452091651263 87.72234953294720583 0.020095091452091651263 87.22338188919326285
0.025298221281346400247 110.04334191303260582 0.025298221281346400247 109.06402578506211398
0.031848573644282396344 137.93504809174319803 0.031848573644282396344 136.16585274960542051
0.040094978690191851456 172.72938446745359897 0.040094978690191851456 169.68483614114663283
0.050476587558421215363 216.04541678733997401 0.050476587558421215363 210.97079289302683947
0.063546258777947173257 269.83435264417232702 0.063546258777947173257 261.56609433864753100
0.079999999999998294697 336.42200074003460486 0.079999999999998294697 323.18108744161588675
0.100714032943542974863 418.54184885151551043 0.100714032943542974863 397.63177657083775784
0.126791455396897845276 519.34798239081840165 0.126791455396897845276 486.71994197830468920
0.159620985197506115583 642.39180407033973097 0.159620985197506115583 592.03004881631386525
0.200950914520774404082 791.53992766186206609 0.200950914520774404082 714.61242555928686215
0.252982212813464002465 970.80318740743325634 0.252982212813464002465 854.52151787330126353
0.318485736442795541734 1184.03997728363333408 0.318485736442795541734 1010.18853672757222739
0.400949786901819038576 1434.49486946863589765 0.400949786901819038576 1177.64294546118003382
0.504765875584169521062 1724.14344561359121144 0.504765875584169521062 1349.67801422309162263
0.635462587779443310865 2052.84993237696789947 0.635462587779443310865 1515.20260595535296488
0.799999999999997157829 2417.42251620662045752 0.799999999999997157829 1659.22400250341365791
1.007140329435330272645 2810.77998196907537931 1.007140329435330272645 1764.06813200563237842
1.267914553968893187630 3221.59365405333846866 1.267914553968893187630 1812.34343400544707947
1.596209851975103788391 3634.84565259829605566 1.596209851975103788391 1791.53678082042347341
2.009509145207687197399 4033.60234030789661119 2.009509145207687197399 1698.99714397103571173
2.529822128134711078928 4401.85220622799261037 2.529822128134711078928 1545.00454079225869464
3.184857364427983839050 4727.63448617879566882 3.184857364427983839050 1351.68170158581574469
4.009497869018190385759 5005.28508858077111654 4.009497869018190385759 1147.17309544130580434
5.009497869018190385759 5228.94737741450808244 5.009497869018190385759 962.52313976576215282
6.009497869018190385759 5382.85202888363892271 6.009497869018190385759 833.00100089531076719
7.009497869018204596614 5496.09966628402253264 7.009497869018204596614 742.89370522059584800
8.009497869018190385759 5583.93666720001965587 8.009497869018190385759 679.47494749110376233
9.009497869018204596614 5654.91056987261072209 9.009497869018204596614 635.02971009564510041
10.009497869018190385759 5714.10307041231499170 10.009497869018190385759 603.32150524042651796
11.009497869018190385759 5764.69998338882305688 11.009497869018190385759 577.60163418886895670
12.009497869018190385759 5808.78866294921044755 12.009497869018190385759 557.99028953575509604
13.009497869018190385759 5847.79571669331562589 13.009497869018190385759 542.71902206741617647
14.009497869018204596614 5882.73067260045809235 14.009497869018204596614 530.59016579831109084
15.009497869018190385759 5914.33058515964876278 15.009497869018190385759 520.77459470069038616
16.009497869018190385759 5943.14854847882452304 16.009497869018190385759 512.69185058606569783
17.009497869018190385759 5969.60987353947075462 17.009497869018190385759 506.08209266555724071
18.009497869018190385759 5994.04854336033258733 18.009497869018190385759 500.29508733227021366
19.009497869018204596614 6016.73077527037094114 19.009497869018204596614 495.50866976745959391
20.009497869018190385759 6037.87330376851969049 20.009497869018190385759 491.11854277435998029
21.009497869018204596614 6057.65518859781059291 21.009497869018204596614 487.25123715377554845
22.009497869018190385759 6076.22492539404083800 22.009497869018190385759 483.80812476582883619
23.009497869018190385759 6093.70820475642449310 23.009497869018190385759 480.76672408897536570
24.009497869018190385759 6110.21223859333258588 24.009497869018190385759 477.94871315740914497
25.009497869018190385759 6125.82854163660340419 25.009497869018190385759 475.37309773825381853
26.009497869018204596614 6140.63713959032247658 26.009497869018204596614 473.05431421826790483
27.009497869018190385759 6154.70693384675905691 27.009497869018190385759 470.84520357720447237
28.009497869018190385759 6168.09914711166311463 28.009497869018190385759 468.78507531788812912
29.009497869018190385759 6180.86710844145636656 29.009497869018190385759 466.86815024004027919
30.009497869018190385759 6193.05868906846808386 30.009497869018190385759 465.04335762404400612
31.009497869018190385759 6204.71614552612845728 31.009497869018190385759 463.31610492580517757
32.009497869018190385759 6215.87752457185069943 32.009497869018190385759 461.67224469430226463
33.009497869018190385759 6226.57698501805498381 33.009497869018190385759 460.11159918340558761
34.009497869018190385759 6236.84520694960428955 34.009497869018190385759 458.60328516110257624
35.009497869018190385759 6246.71023701690501184 35.009497869018190385759 457.14796588043316206
36.009497869018190385759 6256.19726181378973706 36.009497869018190385759 455.74631432091013039
37.009497869018190385759 6265.32937558175945014 37.009497869018190385759 454.39011418513814533
38.009497869018190385759 6274.12769629662761872 38.009497869018190385759 453.07432341514311247
39.009497869018190385759 6282.61143916208675364 39.009497869018190385759 451.78488533883171385
40.009497869018190385759 6290.79835571166950103 40.009497869018190385759 450.51244634465518857
41.009497869018190385759 6298.70479235553466424 41.009497869018190385759 449.30497640186911212
42.009497869018190385759 6306.34575414008486405 42.009497869018190385759 448.09671674523588081
43.009497869018190385759 6313.73516459587881400 43.009497869018190385759 446.94135950568545468
44.009497869018218807469 6320.88594004061997111 44.009497869018218807469 445.77766693079894367
46.009497869018190385759 6334.51853876210134331 46.009497869018190385759 443.51926550329403653
48.009497869018190385759 6347.32965152793167363 48.009497869018190385759 441.34616382156173131
50.009497869018190385759 6359.39420105182034604 50.009497869018190385759 439.19484332142081939
52.009497869018190385759 6370.77771116452004208 52.009497869018190385759 437.10445636008904557
54.009497869018190385759 6381.53801928111988673 54.009497869018190385759 435.08510966838167633
56.009497869018190385759 6391.72610735183388897 56.009497869018190385759 433.10627709307885880
58.009497869018218807469 6401.38756074249249650 58.009497869018218807469 431.07181585736680063
60.009497869018190385759 6410.56279032834936515 60.009497869018190385759 429.16987048611184719
62.009497869018190385759 6419.28832335007336951 62.009497869018190385759 427.30192271291622319
64.009497869018190385759 6427.59678506224645389 64.009497869018190385759 425.46605141346157097
66.009497869018190385759 6435.51775294091748947 66.009497869018190385759 423.63100467491892687
68.009497869018190385759 6443.07808634075172449 68.009497869018190385759 421.80913870817460065
70.009497869018190385759 6450.30185346730286255 70.009497869018190385759 420.07543534780415939
72.009497869018218807469 6457.21143209470574220 72.009497869018218807469 418.34453444196543614
74.009497869018190385759 6463.82695557544866460 74.009497869018190385759 416.66476245713050730
76.009497869018190385759 6470.16684494242144865 76.009497869018190385759 415.02006981910398054
78.009497869018190385759 6476.24827228494996234 78.009497869018190385759 413.39808177676189871
80.009497869018190385759 6482.08672216269405908 80.009497869018190385759 411.82163005656303767
82.009497869018218807469 6487.69651387228259409 82.009497869018218807469 410.28564516100902893
84.009497869018190385759 6493.09108717608251027 84.009497869018190385759 408.80193944052899724
86.009497869018190385759 6498.28258538601767214 86.009497869018190385759 407.32394095159656899
88.009497869018190385759 6503.28226105571957305 88.009497869018190385759 405.90560917910937633
91.009497869018218807469 6510.44534678322452237 91.009497869018218807469 403.82787207706240906
94.009497869018190385759 6517.23306730160857114 94.009497869018190385759 401.83206513128772031
97.009497869018190385759 6523.67459296136439661 97.009497869018190385759 399.90306968482434513
99.504748934509109403734 6528.78765875958106335 99.504748934509109403734 398.66574898113225345
nan nan nan nan

