Time Pressure difference Time.1 Pressure.1 difference.1
(hr) (psi) (hr) (psi)
0.000200000000006639311 0.45358742209301700 0.000200000000006639311 0.36158367306590505
0.000399999999999067768 0.90691794975811080 0.000399999999999067768 0.94645550948511448
0.000600000000005707079 1.36003076013888036 0.000600000000005707079 1.38475794478267522
0.000799999999998135536 1.81294461885784552 0.000799999999998135536 1.83096946068800492
0.001007140329434719206 2.28182779909845657 0.001007140329434719206 2.29938583307595357
0.001267914553963578328 2.87183988611314467 0.001267914553963578328 2.89324589111561270
0.001596209851982166583 3.61419928121933864 0.001596209851982166583 3.64008014797791146
0.002009509145210586212 4.54813104191326101 0.002009509145210586212 4.57907910203605262
0.002529822128138903281 5.72289926794675452 0.002529822128138903281 5.75935798450270831
0.003184857364445292660 7.20034394832043390 0.003184857364445292660 7.24240752313182146
0.004009497869020606231 9.05804122642346599 0.004009497869020606231 9.10511560014936983
0.005047658755842121536 11.39323060740207971 0.005047658755842121536 11.44347365623040957
0.006354625877804664924 14.32768025099412945 0.006354625877804664924 14.37709320882921205
0.008000000000009777068 18.01369122932645084 0.008000000000009777068 18.05466304807243461
0.010071403294347192059 22.64147142830447734 0.010071403294347192059 22.66047026764761085
0.012679145539692626699 28.44813577060863352 0.012679145539692626699 28.42207825297250778
0.015962098519750611558 35.72860490970817438 0.015962098519750611558 35.61918654023769903
0.020095091452091651263 44.84866838222910701 0.020095091452091651263 44.59356766379956127
0.025298221281346400247 56.26043277917707996 0.025298221281346400247 55.75975051862932474
0.031848573644282396344 70.52026379924956245 0.031848573644282396344 69.61575023314723865
0.040094978690191851456 88.30911307200958049 0.040094978690191851456 86.75256631981699229
0.050476587558421215363 110.45473935187645509 0.050476587558421215363 107.86030218264504299
0.063546258777947173257 137.95471124866219270 0.063546258777947173257 133.72750601741358878
0.079999999999998294697 171.99811482487697845 0.079999999999998294697 165.22860474266479969
0.100714032943542974863 213.98246493815756253 0.100714032943542974863 203.29204336876790649
0.126791455396897845276 265.52030994652534446 0.126791455396897845276 248.83899472624395344
0.159620985197506115583 328.42732947310986447 0.159620985197506115583 302.67952777194278724
0.200950914520774404082 404.68035701286567019 0.200950914520774404082 365.35063032815327233
0.252982212813464002465 496.32995979085467297 0.252982212813464002465 436.88013812471780284
0.318485736442795541734 605.34876887390248612 0.318485736442795541734 516.46599673220157456
0.400949786901819038576 733.39559461576595822 0.400949786901819038576 602.07824134741372291
0.504765875584169521062 881.48046703509112376 0.504765875584169521062 690.03238063000458169
0.635462587779443310865 1049.53397105576686954 0.635462587779443310865 774.65799272576680323
0.799999999999997157829 1235.92426954278448648 0.799999999999997157829 848.28994499470945811
1.007140329435330272645 1437.03104143822361038 1.007140329435330272645 901.89224384903354803
1.267914553968893187630 1647.06242163139722834 1.267914553968893187630 926.57333164443593887
1.596209851975103788391 1858.34041338280644595 1.596209851975103788391 915.93578381531972354
2.009509145207687197399 2062.20757548574420071 2.009509145207687197399 868.62424339982590027
2.529822128134711078928 2250.47791031356064195 2.529822128134711078928 789.89444158703656740
3.184857364427983839050 2417.03639302762121588 3.184857364427983839050 691.05677989143487139
4.009497869018190385759 2558.98721695733593151 4.009497869018190385759 586.50031614963575066
5.009497869018190385759 2673.33613573255797746 5.009497869018190385759 492.09672717855568180
6.009497869018190385759 2752.02097161499386857 6.009497869018190385759 425.87762240895341392
7.009497869018204596614 2809.91962300637169392 7.009497869018204596614 379.80963353210574951
8.009497869018190385759 2854.82690771483203207 8.009497869018190385759 347.38634745089262879
9.009497869018204596614 2891.11281480353864026 9.009497869018204596614 324.66340713145086738
10.009497869018190385759 2921.37539716201808915 10.009497869018190385759 308.45236431147509393
11.009497869018190385759 2947.24342490329081556 11.009497869018190385759 295.30289928042549263
12.009497869018190385759 2969.78407252093802526 12.009497869018190385759 285.27646134801739208
13.009497869018190385759 2989.72670318748305363 13.009497869018190385759 277.46891841157770386
14.009497869018204596614 3007.58744518503726795 14.009497869018204596614 271.26795530964312775
15.009497869018190385759 3023.74312280676213049 15.009497869018190385759 266.24967552708841367
16.009497869018190385759 3038.47650930671625247 16.009497869018190385759 262.11731573114997218
17.009497869018190385759 3052.00504791652156200 17.009497869018190385759 258.73803049036462198
18.009497869018190385759 3064.49948980429780931 18.009497869018190385759 255.77938329839332710
19.009497869018204596614 3076.09594045248832117 19.009497869018204596614 253.33229364283815244
20.009497869018190385759 3086.90520689853974545 20.009497869018190385759 251.08781033023097962
21.009497869018204596614 3097.01883469587892250 21.009497869018204596614 249.11062312270885855
22.009497869018190385759 3106.51274328306953976 22.009497869018190385759 247.35030768984682936
23.009497869018190385759 3115.45119286327508235 23.009497869018190385759 245.79537019558310362
24.009497869018190385759 3123.88899627895489175 24.009497869018190385759 244.35464228028894240
25.009497869018190385759 3131.87294108062724263 25.009497869018190385759 243.03784077612417036
26.009497869018204596614 3139.44394097253825748 26.009497869018204596614 241.85234638738839408
27.009497869018190385759 3146.63722227625112282 27.009497869018190385759 240.72292302962139843
28.009497869018190385759 3153.48408553082208527 28.009497869018190385759 239.66966796271015028
29.009497869018190385759 3160.01179559155116294 29.009497869018190385759 238.68962652985172213
30.009497869018190385759 3166.24482696277209470 30.009497869018190385759 237.75668846632646591
31.009497869018190385759 3172.20478359450316930 31.009497869018190385759 236.87361837201109438
32.009497869018190385759 3177.91111715915394598 32.009497869018190385759 236.03318326303445929
33.009497869018190385759 3183.38129158990614087 33.009497869018190385759 235.23529226543718096
34.009497869018190385759 3188.63099229599856699 34.009497869018190385759 234.46415610956933051
35.009497869018190385759 3193.67455832477753574 35.009497869018190385759 233.72011388821394462
36.009497869018190385759 3198.52486649954562381 36.009497869018190385759 233.00350966688179710
37.009497869018190385759 3203.19372391375145526 37.009497869018190385759 232.31014280572262010
38.009497869018190385759 3207.69192728110874668 38.009497869018190385759 231.63743551712286717
39.009497869018190385759 3212.02930050969735021 39.009497869018190385759 230.97820122857720548
40.009497869018190385759 3216.21491919592881459 40.009497869018190385759 230.32765784037249546
41.009497869018190385759 3220.25714055700427707 41.009497869018190385759 229.71033033679049140
42.009497869018190385759 3224.16363602846786307 42.009497869018190385759 229.09259908644801840
43.009497869018190385759 3227.94152411327786467 43.009497869018190385759 228.50191456904181564
44.009497869018218807469 3231.59740836973560363 44.009497869018218807469 227.90696855280060618
46.009497869018190385759 3238.56717038024862632 46.009497869018190385759 226.75234493367284472
48.009497869018190385759 3245.11694191625065287 48.009497869018190385759 225.64133140971026137
50.009497869018190385759 3251.28502774225353278 50.009497869018190385759 224.54145366808100448
52.009497869018190385759 3257.10492737773301997 52.009497869018190385759 223.47272862687478323
54.009497869018190385759 3262.60621060807670801 54.009497869018190385759 222.44032342332835128
56.009497869018190385759 3267.81494231402348305 56.009497869018190385759 221.42863134683676662
58.009497869018218807469 3272.75442833457645975 58.009497869018218807469 220.38849872632729898
60.009497869018190385759 3277.44532901402499192 60.009497869018190385759 219.41611577385643272
62.009497869018190385759 3281.90631916115353306 62.009497869018190385759 218.46111433258846546
64.009497869018190385759 3286.15407866690793526 64.009497869018190385759 217.52251221419939498
66.009497869018190385759 3290.20372922401475080 66.009497869018190385759 216.58433165837789147
68.009497869018190385759 3294.06900286651944043 68.009497869018190385759 215.65288986487348666
70.009497869018190385759 3297.76220463384697723 70.009497869018190385759 214.76652182415878656
72.009497869018218807469 3301.29477532046348642 72.009497869018218807469 213.88158655804051023
74.009497869018190385759 3304.67700824448320418 74.009497869018190385759 213.02279131251043509
76.009497869018190385759 3307.91832128857413409 76.009497869018190385759 212.18193062984209973
78.009497869018190385759 3311.02749380421892056 78.009497869018190385759 211.35267783145894782
80.009497869018190385759 3314.01244238149001831 80.009497869018190385759 210.54670579814901998
82.009497869018218807469 3316.88048786153285619 82.009497869018218807469 209.76142271364909675
84.009497869018190385759 3319.63850141741568223 84.009497869018190385759 209.00286772522355250
86.009497869018190385759 3322.29269140279529893 86.009497869018190385759 208.24723059908077971
88.009497869018190385759 3324.84881076488500184 88.009497869018190385759 207.52209850151464821
91.009497869018218807469 3328.51098874001627337 91.009497869018218807469 206.45984078986774080
94.009497869018190385759 3331.98125861104745127 94.009497869018190385759 205.43947044704671612
97.009497869018190385759 3335.27453392490042461 97.009497869018190385759 204.45325795331078211
99.504748934509109403734 3337.88862478796636424 99.504748934509109403734 203.82066903819614367
nan nan nan nan

