Time Pressure difference Time.1 Pressure.1 difference.1
(hr) (psi) (hr) (psi)
0.000200000000006639311 0.83559958125025513 0.000200000000006639311 0.66611010597829123
0.000399999999999067768 1.67072591111402424 0.000399999999999067768 1.74356207618909176
0.000600000000005707079 2.50545116179713023 0.000600000000005707079 2.55100362671890979
0.000799999999998135536 3.33980990336381067 0.000799999999998135536 3.37301530005643491
0.001007140329434719206 4.20358735833917496 0.001007140329434719206 4.23593280074909639
0.001267914553963578328 5.29050870762861880 0.001267914553963578328 5.32994288932123794
0.001596209851982166583 6.65808454742057965 0.001596209851982166583 6.70576232765105118
0.002009509145210586212 8.37857535060718384 0.002009509145210586212 8.43558792375081978
0.002529822128138903281 10.54273553214411230 0.002529822128138903281 10.60989984668021791
0.003184857364445292660 13.26448683323617672 0.003184857364445292660 13.34197642793458449
0.004009497869020606231 16.68674016757643841 0.004009497869020606231 16.77346066522929746
0.005047658755842121536 20.98863032996639788 0.005047658755842121536 21.08118816670702955
0.006354625877804664924 26.39447884770294550 0.006354625877804664924 26.48550748929271137
0.008000000000009777068 33.18485503530965275 0.008000000000009777068 33.26033339498115282
0.010071403294347192059 41.71016020920677647 0.010071403294347192059 41.74515990590495562
0.012679145539692626699 52.40720791502948828 0.012679145539692626699 52.35920470822824768
0.015962098519750611558 65.81930152173762849 0.015962098519750611558 65.61773080073146502
0.020095091452091651263 82.62029918487711200 0.020095091452091651263 82.15035217331147521
0.025298221281346400247 103.64307249595191252 0.025298221281346400247 102.72071471688778388
0.031848573644282396344 129.91255936595698017 0.031848573644282396344 128.24626281482537138
0.040094978690191851456 162.68321013632592553 0.040094978690191851456 159.81573685338761948
0.050476587558421215363 203.47992350327331224 0.050476587558421215363 198.70044658968004114
0.063546258777947173257 254.14042219019600566 0.063546258777947173257 246.35305695684999705
0.079999999999998294697 316.85524272325966422 0.079999999999998294697 304.38443882868887158
0.100714032943542974863 394.19888953744987248 0.100714032943542974863 374.50497530686783421
0.126791455396897845276 489.14200217671827886 0.126791455396897845276 458.41165266999809091
0.159620985197506115583 605.02942897431626079 0.159620985197506115583 557.59678143675330375
0.200950914520774404082 745.50289622186630822 0.200950914520774404082 673.04960155865296656
0.252982212813464002465 914.33996262388643572 0.252982212813464002465 804.82139206828742317
0.318485736442795541734 1115.17461275118921549 0.318485736442795541734 951.43460682409238416
0.400949786901819038576 1351.06271008115413679 0.400949786901819038576 1109.14964094092374580
0.504765875584169521062 1623.86493376739736050 0.504765875584169521062 1271.17891771105405496
0.635462587779443310865 1933.45340722933929101 0.635462587779443310865 1427.07637559021986817
0.799999999999997157829 2276.82195710267069444 0.799999999999997157829 1562.72129316456562265
1.007140329435330272645 2647.30122129169967593 1.007140329435330272645 1661.46754646684325962
1.267914553968893187630 3034.22141526224322661 1.267914553968893187630 1706.93509168993341518
1.596209851975103788391 3423.43811933272945680 1.596209851975103788391 1687.33858156069891265
2.009509145207687197399 3799.00257942694906887 2.009509145207687197399 1600.18117499711047458
2.529822128134711078928 4145.83453569690846052 2.529822128134711078928 1455.14498963923801966
3.184857364427983839050 4452.66887816464532079 3.184857364427983839050 1273.06606791009289736
4.009497869018190385759 4714.17094646819259651 4.009497869018190385759 1080.45195855822817066
5.009497869018190385759 4924.82473445043706306 5.009497869018190385759 906.54149373810992074
6.009497869018190385759 5069.77808348890539492 6.009497869018190385759 784.55253742860406874
7.009497869018204596614 5176.43908531816032337 7.009497869018204596614 699.68600379125530253
8.009497869018190385759 5259.16736760677213169 8.009497869018190385759 639.95576668017656630
9.009497869018204596614 5326.01333222523498989 9.009497869018204596614 598.09552433023236517
10.009497869018190385759 5381.76311697369965259 10.009497869018190385759 568.23151150224043704
11.009497869018190385759 5429.41724514294310211 11.009497869018190385759 544.00754289458211588
12.009497869018190385759 5470.94166754315938306 12.009497869018190385759 525.53682053836598698
13.009497869018190385759 5507.68001834905135183 13.009497869018190385759 511.15375061508990484
14.009497869018204596614 5540.58311002894970443 14.009497869018204596614 499.73032501079205758
15.009497869018190385759 5570.34512898713637696 15.009497869018190385759 490.48564078751689976
16.009497869018190385759 5597.48700063108844915 16.009497869018190385759 482.87299998912760657
17.009497869018190385759 5622.40929928107743763 17.009497869018190385759 476.64767451802947562
18.009497869018190385759 5645.42658305232089333 18.009497869018190385759 471.19724923226948476
19.009497869018204596614 5666.78958571430757729 19.009497869018204596614 466.68921617873297691
20.009497869018190385759 5686.70243619474149455 20.009497869018190385759 462.55442490193007643
21.009497869018204596614 5705.33377988011397974 21.009497869018204596614 458.91204700036644226
22.009497869018190385759 5722.82347569945341093 22.009497869018190385759 455.66919068001135429
23.009497869018190385759 5739.28990391693241691 23.009497869018190385759 452.80468197498242944
24.009497869018190385759 5754.83404085150687024 24.009497869018190385759 450.15057036589007566
25.009497869018190385759 5769.54207861458689877 25.009497869018190385759 447.72475621876810692
26.009497869018204596614 5783.48938850720787741 26.009497869018204596614 445.54083628062005573
27.009497869018190385759 5796.74086452358915267 27.009497869018190385759 443.46021049860530638
28.009497869018190385759 5809.35416857421205350 28.009497869018190385759 441.51990208176329133
29.009497869018190385759 5821.37952802553718357 29.009497869018190385759 439.71446795591032242
30.009497869018190385759 5832.86202985435465962 30.009497869018190385759 437.99580774347111856
31.009497869018190385759 5843.84147289702923445 31.009497869018190385759 436.36901439541128411
32.009497869018190385759 5854.35369106016696605 32.009497869018190385759 434.82076329557173722
33.009497869018190385759 5864.43085643351514591 33.009497869018190385759 433.35088703577787328
34.009497869018190385759 5874.10186470675671444 34.009497869018190385759 431.93029859450939512
35.009497869018190385759 5883.39313129922356893 35.009497869018190385759 430.55962264911335069
36.009497869018190385759 5892.32837791842939623 36.009497869018190385759 429.23949303770518782
37.009497869018190385759 5900.92935561358990526 37.009497869018190385759 427.96217133384493536
38.009497869018190385759 5909.21595411051930569 38.009497869018190385759 426.72290873246117826
39.009497869018190385759 5917.20627103070819430 39.009497869018190385759 425.50846611649819806
40.009497869018190385759 5924.91702545451789774 40.009497869018190385759 424.31003389308989426
41.009497869018190385759 5932.36361306281196448 41.009497869018190385759 423.17279203328013182
42.009497869018190385759 5939.56016618822377495 42.009497869018190385759 422.03480639044727241
43.009497869018190385759 5946.51979854996443464 43.009497869018190385759 420.94664628865683653
44.009497869018218807469 5953.25467523525549041 44.009497869018218807469 419.85063564589319185
46.009497869018190385759 5966.09438359957766806 46.009497869018190385759 417.72358589616061408
48.009497869018190385759 5978.16038474112883705 48.009497869018190385759 415.67687474375981083
50.009497869018190385759 5989.52324376738124556 50.009497869018190385759 413.65067795000612705
52.009497869018190385759 6000.24467355457636586 52.009497869018190385759 411.68187071813264311
54.009497869018190385759 6010.37914761561296473 54.009497869018190385759 409.77997195783791540
56.009497869018190385759 6019.97468272161495406 56.009497869018190385759 407.91623095820938261
58.009497869018218807469 6029.07421293195329781 58.009497869018218807469 406.00009673620661488
60.009497869018190385759 6037.71579877079057042 60.009497869018190385759 404.20877107697589281
62.009497869018190385759 6045.93384300513389462 62.009497869018190385759 402.44946566957582945
64.009497869018190385759 6053.75907336068939912 64.009497869018190385759 400.72037112487373633
66.009497869018190385759 6061.21934704754312406 66.009497869018190385759 398.99205318350715288
68.009497869018190385759 6068.33996124400982808 68.009497869018190385759 397.27614940244581021
70.009497869018190385759 6075.14358431629716506 70.009497869018190385759 395.64328057147787376
72.009497869018218807469 6081.65129251696453139 72.009497869018218807469 394.01305120050034247
74.009497869018190385759 6087.88204821552608337 74.009497869018190385759 392.43097702341373179
76.009497869018190385759 6093.85320105271239299 76.009497869018190385759 390.88194193093846707
78.009497869018190385759 6099.58092436593778984 78.009497869018190385759 389.35429090419228260
80.009497869018190385759 6105.07980211195535958 80.009497869018190385759 387.86952774558091050
82.009497869018218807469 6110.36332075775953854 82.009497869018218807469 386.42287780642874395
84.009497869018190385759 6115.44413839098251628 84.009497869018190385759 385.02546641490721413
86.009497869018190385759 6120.33369205212238739 86.009497869018190385759 383.63343031463688249
88.009497869018190385759 6125.04257983109073393 88.009497869018190385759 382.29759063398296348
91.009497869018218807469 6131.78905081647008046 91.009497869018218807469 380.34069752849035240
94.009497869018190385759 6138.18198834035138134 94.009497869018190385759 378.46096941070624098
97.009497869018190385759 6144.24886616623825830 97.009497869018190385759 376.64416694518166651
99.504748934509109403734 6149.06454915067479305 99.504748934509109403734 375.47881048504387991
nan nan nan nan

