Time Pressure difference Time.1 Pressure.1 difference.1
(hr) (psi) (hr) (psi)
0.000200000000006639311 0.29379148623639451 0.000200000000006639311 0.23420006714176969
0.000399999999999067768 0.58741658030204236 0.000399999999999067768 0.61302531164815677
0.000600000000005707079 0.88090065748444912 0.000600000000005707079 0.89691661377666854
0.000799999999998135536 1.17425587239783380 0.000799999999998135536 1.18593067820709308
0.001007140329434719206 1.47795451941606459 0.001007140329434719206 1.48932697078130594
0.001267914553963578328 1.86010913724392646 0.001267914553963578328 1.87397394415378216
0.001596209851982166583 2.34094008489986516 0.001596209851982166583 2.35770328850679389
0.002009509145210586212 2.94585368402822256 0.002009509145210586212 2.96589894131876441
0.002529822128138903281 3.70675860841321914 0.002529822128138903281 3.73037315326505681
0.003184857364445292660 4.66370901606809785 0.003184857364445292660 4.69095386360648270
0.004009497869020606231 5.86695147326143740 0.004009497869020606231 5.89744184743619826
0.005047658755842121536 7.37946863195033753 0.005047658755842121536 7.41201137733822879
0.006354625877804664924 9.28013051119436305 0.006354625877804664924 9.31213560131506668
0.008000000000009777068 11.66758349349034418 0.008000000000009777068 11.69412120361388929
0.010071403294347192059 14.66502644805776256 0.010071403294347192059 14.67733211831120421
0.012679145539692626699 18.42604023307311678 0.012679145539692626699 18.40916261155834022
0.015962098519750611558 23.14164684977428621 0.015962098519750611558 23.07077586918148171
0.020095091452091651263 29.04877053014105570 0.020095091452091651263 28.88354015655274054
0.025298221281346400247 36.44024361660460443 0.025298221281346400247 36.11594850105715437
0.031848573644282396344 45.67642774520201243 0.031848573644282396344 45.09056849963481284
0.040094978690191851456 57.19837965948510572 0.040094978690191851456 56.19019433191815693
0.050476587558421215363 71.54224402057317889 0.050476587558421215363 69.86181040453890034
0.063546258777947173257 89.35415242344541298 0.063546258777947173257 86.61616444797614633
0.079999999999998294697 111.40428354712214798 0.079999999999998294697 107.01962839295535446
0.100714032943542974863 138.59781673976075922 0.100714032943542974863 131.67356203518360758
0.126791455396897845276 171.97920992866690426 0.126791455396897845276 161.17461493277818363
0.159620985197506115583 212.72449046606934075 0.159620985197506115583 196.04747395136843124
0.200950914520774404082 262.11406610191119171 0.200950914520774404082 236.63994955199649439
0.252982212813464002465 321.47610239664533083 0.252982212813464002465 282.97007111564289517
0.318485736442795541734 392.08828516052773239 0.318485736442795541734 334.51834283755442812
0.400949786901819038576 475.02503651259706885 0.400949786901819038576 389.96994347823317639
0.504765875584169521062 570.94055938236181191 0.504765875584169521062 446.93840433466351669
0.635462587779443310865 679.78989317923981162 0.635462587779443310865 501.75095675632235270
0.799999999999997157829 800.51608651119795468 0.799999999999997157829 549.44284510666500410
1.007140329435330272645 930.77423417925297144 1.007140329435330272645 584.16139830955739853
1.267914553968893187630 1066.81290795574886943 1.267914553968893187630 600.14749737703834853
1.596209851975103788391 1203.65902004427630345 1.596209851975103788391 593.25748933359238890
2.009509145207687197399 1335.70509017700510412 2.009509145207687197399 562.61350077089650767
2.529822128134711078928 1457.64899512052647879 2.529822128134711078928 511.61970253252098928
3.184857364427983839050 1565.52999401605529783 3.184857364427983839050 447.60191431500277304
4.009497869018190385759 1657.47245428612768592 4.009497869018190385759 379.88002128591085693
5.009497869018190385759 1731.53698332769340595 5.009497869018190385759 318.73421044776176814
6.009497869018190385759 1782.50165684420699108 6.009497869018190385759 275.84367102818453077
7.009497869018204596614 1820.00298517660394282 7.009497869018204596614 246.00513878318042771
8.009497869018190385759 1849.08972187767994910 8.009497869018190385759 225.00436816544055318
9.009497869018204596614 1872.59233692779662306 9.009497869018204596614 210.28657379339841782
10.009497869018190385759 1892.19360586824313941 10.009497869018190385759 199.78657725128573475
11.009497869018190385759 1908.94849356121426354 11.009497869018190385759 191.26958430456917881
12.009497869018190385759 1923.54821577961661205 12.009497869018190385759 184.77539606578005760
13.009497869018190385759 1936.46518573427806587 13.009497869018190385759 179.71840036566408116
14.009497869018204596614 1948.03370302810662906 14.009497869018204596614 175.70199674184220839
15.009497869018190385759 1958.49783917575587111 15.009497869018190385759 172.45162469919668524
16.009497869018190385759 1968.04074822985489845 16.009497869018190385759 169.77506872127690940
17.009497869018190385759 1976.80326956794851867 17.009497869018190385759 167.58628396898845381
18.009497869018190385759 1984.89599981819651475 18.009497869018190385759 165.66994918226208711
19.009497869018204596614 1992.40709537564794118 19.009497869018204596614 164.08495349710432265
20.009497869018190385759 1999.40832667006361589 20.009497869018190385759 162.63118724141565963
21.009497869018204596614 2005.95898834430295210 21.009497869018204596614 161.35055038957105467
22.009497869018190385759 2012.10825390628178866 22.009497869018190385759 160.21038277892830592
23.009497869018190385759 2017.89774510226789062 23.009497869018190385759 159.20323977805657023
24.009497869018190385759 2023.36296456233230856 24.009497869018190385759 158.27007105493945005
25.009497869018190385759 2028.53421688341563822 25.009497869018190385759 157.41717026416850445
26.009497869018204596614 2033.43800213450640513 26.009497869018204596614 156.64931793531761173
27.009497869018190385759 2038.09713663030584030 27.009497869018190385759 155.91778317331440462
28.009497869018190385759 2042.53189393097272841 28.009497869018190385759 155.23558310245263669
29.009497869018190385759 2046.75993365838098725 29.009497869018190385759 154.60080397254617424
30.009497869018190385759 2050.79710810616234085 30.009497869018190385759 153.99653399745548654
31.009497869018190385759 2054.65741029148512098 31.009497869018190385759 153.42456382627509015
32.009497869018190385759 2058.35343918748867509 32.009497869018190385759 152.88020860890122776
33.009497869018190385759 2061.89650629584775743 33.009497869018190385759 152.36340948568684439
34.009497869018190385759 2065.29677115685763056 34.009497869018190385759 151.86393964528068068
35.009497869018190385759 2068.56352126357160159 35.009497869018190385759 151.38201872025598504
36.009497869018190385759 2071.70509701713672257 36.009497869018190385759 150.91786956405371711
37.009497869018190385759 2074.72914594780604602 37.009497869018190385759 150.46877139526620226
38.009497869018190385759 2077.64266115638793053 38.009497869018190385759 150.03305456430160802
39.009497869018190385759 2080.45200565123468550 39.009497869018190385759 149.60606428199585594
40.009497869018190385759 2083.16305775442742743 40.009497869018190385759 149.18470315165410511
41.009497869018190385759 2085.78123048921543159 41.009497869018190385759 148.78485616309549755
42.009497869018190385759 2088.31149269366824228 42.009497869018190385759 148.38474766516725367
43.009497869018190385759 2090.75845506786617989 43.009497869018190385759 148.00215750985643126
44.009497869018218807469 2093.12639477892935247 44.009497869018218807469 147.61680715438276934
46.009497869018190385759 2097.64075439307862325 46.009497869018190385759 146.86895002125964993
48.009497869018190385759 2101.88308347969950773 48.009497869018190385759 146.14933942683984469
50.009497869018190385759 2105.87819228076250511 50.009497869018190385759 145.43694155015154479
52.009497869018190385759 2109.64777865016458236 52.009497869018190385759 144.74472147759047402
54.009497869018190385759 2113.21099512780028817 54.009497869018190385759 144.07602599712825509
56.009497869018190385759 2116.58472410431249955 56.009497869018190385759 143.42074654207959838
58.009497869018218807469 2119.78406092129444005 58.009497869018218807469 142.74704596402483503
60.009497869018190385759 2122.82238741642322566 60.009497869018190385759 142.11722728104828661
62.009497869018190385759 2125.71179938327941272 62.009497869018190385759 141.49866671450226363
64.009497869018190385759 2128.46310049434623579 64.009497869018190385759 140.89072809470161474
66.009497869018190385759 2131.08608516711410630 66.009497869018190385759 140.28306252368329865
68.009497869018190385759 2133.58964772822264422 68.009497869018190385759 139.67976169229419270
70.009497869018190385759 2135.98175823073006541 70.009497869018190385759 139.10565542005147677
72.009497869018218807469 2138.26982695068545581 72.009497869018218807469 138.53247716511614840
74.009497869018190385759 2140.46052093633534241 74.009497869018190385759 137.97622996938747519
76.009497869018190385759 2142.55994021076412537 76.009497869018190385759 137.43159910520046196
78.009497869018190385759 2144.57377121631088812 78.009497869018190385759 136.89448674221102920
80.009497869018190385759 2146.50714157920356229 80.009497869018190385759 136.37245348026900160
82.009497869018218807469 2148.36479305526836470 82.009497869018218807469 135.86382058333600753
84.009497869018190385759 2150.15117614742666774 84.009497869018190385759 135.37249964587874729
86.009497869018190385759 2151.87031204621416691 86.009497869018190385759 134.88306862656060048
88.009497869018190385759 2153.52592697248519471 88.009497869018190385759 134.41339591015537280
91.009497869018218807469 2155.89794316555207843 91.009497869018218807469 133.72536476848313214
94.009497869018190385759 2158.14565924715543588 94.009497869018190385759 133.06446434460090700
97.009497869018190385759 2160.27873481741244177 97.009497869018190385759 132.42568817893339883
99.504748934509109403734 2161.97189825715986444 99.504748934509109403734 132.01595627611601458
nan nan nan nan

