Time Pressure difference Time.1 Pressure.1 difference.1
(hr) (psi) (hr) (psi)
0.000200000000006639311 0.12400830438873309 0.000200000000006639311 0.09885498584737588
0.000399999999999067768 0.24794637525496974 0.000399999999999067768 0.25875572644638911
0.000600000000005707079 0.37182492341411594 0.000600000000005707079 0.37858519958278641
0.000799999999998135536 0.49564907928407159 0.000799999999998135536 0.50057697182112426
0.001007140329434719206 0.62383915975352300 0.001007140329434719206 0.62863942959324248
0.001267914553963578328 0.78514521657038261 0.001267914553963578328 0.79099750050683715
0.001596209851982166583 0.98810218881042466 0.001596209851982166583 0.99517787531873181
0.002009509145210586212 1.24343399127536891 0.002009509145210586212 1.25189502055664570
0.002529822128138903281 1.56460915765883746 0.002529822128138903281 1.57457677007505237
0.003184857364445292660 1.96853440054999029 0.003184857364445292660 1.98003435036080999
0.004009497869020606231 2.47641861052678269 0.004009497869020606231 2.48928848517845180
0.005047658755842121536 3.11484653303286185 0.005047658755842121536 3.12858270601528643
0.006354625877804664924 3.91710891265711059 0.006354625877804664924 3.93061814333128945
0.008000000000009777068 4.92484402416447953 0.008000000000009777068 4.93604549387668445
0.010071403294347192059 6.19005365654562745 0.010071403294347192059 6.19524783464127360
0.012679145539692626699 7.77756372444162647 0.012679145539692626699 7.77043974255578629
0.015962098519750611558 9.76800391109452804 0.015962098519750611558 9.73808953118425258
0.020095091452091651263 12.26137906229750030 0.020095091452091651263 12.19163593010299707
0.025298221281346400247 15.38129263137135005 0.025298221281346400247 15.24440885738673401
0.031848573644282396344 19.27985193777648831 0.031848573644282396344 19.03256290777786930
0.040094978690191851456 24.14322540867784639 0.040094978690191851456 23.71767409477565636
0.050476587558421215363 30.19771773106346657 0.050476587558421215363 29.48841289030112023
0.063546258777947173257 37.71605867165259696 0.063546258777947173257 36.56036403044885930
0.079999999999998294697 47.02333781450765571 0.079999999999998294697 45.17259102138908844
0.100714032943542974863 58.50162802896417702 0.100714032943542974863 55.57892561825030953
0.126791455396897845276 72.59179115969226359 0.126791455396897845276 68.03121140222083341
0.159620985197506115583 89.79022402108876122 0.159620985197506115583 82.75091676700822063
0.200950914520774404082 110.63738200902200504 0.200950914520774404082 99.88485122732996047
0.252982212813464002465 135.69387891529788703 0.252982212813464002465 119.44062491850083063
0.318485736442795541734 165.49902121506693220 0.318485736442795541734 141.19896057449179239
0.400949786901819038576 200.50631852798002797 0.400949786901819038576 164.60487699222872493
0.504765875584169521062 240.99190750133686834 0.504765875584169521062 188.65105452086362448
0.635462587779443310865 286.93681043542983389 0.635462587779443310865 211.78723103878760980
0.799999999999997157829 337.89489204013739254 0.799999999999997157829 231.91780147561780723
1.007140329435330272645 392.87637646659686652 1.007140329435330272645 246.57237492386420286
1.267914553968893187630 450.29779967537274388 1.267914553968893187630 253.32004846792838748
1.596209851975103788391 508.06003962208825442 1.596209851975103788391 250.41180144675712427
2.009509145207687197399 563.79619953646954400 2.009509145207687197399 237.47708672765884330
2.529822128134711078928 615.26827272792763779 2.529822128134711078928 215.95279228709807740
3.184857364427983839050 660.80444506626702150 3.184857364427983839050 188.93111964004364722
4.009497869018190385759 699.61301894796883971 4.009497869018190385759 160.34595799320317155
5.009497869018190385759 730.87538389752501189 5.009497869018190385759 134.53653642129322066
6.009497869018190385759 752.38738490024604744 6.009497869018190385759 116.43259768611754623
7.009497869018204596614 768.21655748247599149 7.009497869018204596614 103.83786311244726619
8.009497869018190385759 780.49396192570634412 8.009497869018190385759 94.97351517464771575
9.009497869018204596614 790.41432918482075820 9.009497869018204596614 88.76118837171776477
10.009497869018190385759 798.68795261860691426 10.009497869018190385759 84.32917849983446956
11.009497869018190385759 805.76012901025762858 11.009497869018190385759 80.73418714272183649
12.009497869018190385759 811.92261799196285210 12.009497869018190385759 77.99301420340292168
13.009497869018190385759 817.37482344024761005 13.009497869018190385759 75.85847494188087126
14.009497869018204596614 822.25785198636799578 14.009497869018204596614 74.16316576355380619
15.009497869018190385759 826.67472531781197631 15.009497869018190385759 72.79119569456179306
16.009497869018190385759 830.70275208568932612 16.009497869018190385759 71.66143127328685125
17.009497869018190385759 834.40138007259020014 17.009497869018190385759 70.73755329002629821
18.009497869018190385759 837.81729170796393191 18.009497869018190385759 69.92867543387266949
19.009497869018204596614 840.98769748150584746 19.009497869018204596614 69.25965459226216581
20.009497869018190385759 843.94289142730724507 20.009497869018190385759 68.64602520954937859
21.009497869018204596614 846.70790159575392408 21.009497869018204596614 68.10547311061215225
22.009497869018190385759 849.30348394344480312 22.009497869018190385759 67.62421256107738543
23.009497869018190385759 851.74720685619820415 23.009497869018190385759 67.19910120943464449
24.009497869018190385759 854.05405586342078550 24.009497869018190385759 66.80521412800558778
25.009497869018190385759 856.23682242387792485 25.009497869018190385759 66.44520784521559165
26.009497869018204596614 858.30669211909764726 26.009497869018204596614 66.12110020499243035
27.009497869018190385759 860.27329563148884972 27.009497869018190385759 65.81232207598823436
28.009497869018190385759 862.14519035613307096 28.009497869018190385759 65.52436793842900897
29.009497869018190385759 863.92983035438749084 29.009497869018190385759 65.25643000540900118
30.009497869018190385759 865.63390682101476159 30.009497869018190385759 65.00136987428008695
31.009497869018190385759 867.26332615702915518 31.009497869018190385759 64.75994337143055191
32.009497869018190385759 868.82340634259446688 32.009497869018190385759 64.53017303888464085
33.009497869018190385759 870.31892192091015659 33.009497869018190385759 64.31203403220209225
34.009497869018190385759 871.75416119652072666 34.009497869018190385759 64.10120965197400267
35.009497869018190385759 873.13304438604018287 35.009497869018190385759 63.89779260430069741
36.009497869018190385759 874.45909194207752080 36.009497869018190385759 63.70187695479887680
37.009497869018190385759 875.73553185898879292 37.009497869018190385759 63.51231427165626542
38.009497869018190385759 876.96531589887194968 38.009497869018190385759 63.32839980192900953
39.009497869018190385759 878.15112986411907059 39.009497869018190385759 63.14816877625321467
40.009497869018190385759 879.29545497283186251 40.009497869018190385759 62.97031379489083491
41.009497869018190385759 880.40057604219020959 41.009497869018190385759 62.80153985354456125
42.009497869018190385759 881.46859040044341782 42.009497869018190385759 62.63265553005641806
43.009497869018190385759 882.50144420711637849 43.009497869018190385759 62.47116563447197990
44.009497869018218807469 883.50094283869827905 44.009497869018218807469 62.30851066856384080
46.009497869018190385759 885.40643740671021078 46.009497869018190385759 61.99284292682065001
48.009497869018190385759 887.19710889086479710 48.009497869018190385759 61.68909794504005362
50.009497869018190385759 888.88342960292800399 50.009497869018190385759 61.38839742485151163
52.009497869018190385759 890.47455812712337320 52.009497869018190385759 61.09621388147585463
54.009497869018190385759 891.97857868000642156 54.009497869018190385759 60.81395998179068840
56.009497869018190385759 893.40261725649452274 56.009497869018190385759 60.53736893702510002
58.009497869018218807469 894.75304554468232254 58.009497869018218807469 60.25300240407847241
60.009497869018190385759 896.03551196897194586 60.009497869018190385759 59.98715825743964558
62.009497869018190385759 897.25512211928776196 62.009497869018190385759 59.72606612028565820
64.009497869018190385759 898.41643618599880483 64.009497869018190385759 59.46945746773525343
66.009497869018190385759 899.52358835665722836 66.009497869018190385759 59.21296406807028490
68.009497869018190385759 900.58033289378238351 68.009497869018190385759 58.95831300892871241
70.009497869018190385759 901.59003392741863081 70.009497869018190385759 58.71598486568745301
72.009497869018218807469 902.55581930779646882 72.009497869018218807469 58.47404843513400863
74.009497869018190385759 903.48050317142758558 74.009497869018190385759 58.23925854231936938
76.009497869018190385759 904.36666031559184376 76.009497869018190385759 58.00937186026875736
78.009497869018190385759 905.21669096665812049 78.009497869018190385759 57.78265870988510500
80.009497869018190385759 906.03275947677423119 80.009497869018190385759 57.56231039252146786
82.009497869018218807469 906.81686732361174563 82.009497869018218807469 57.34761831987837155
84.009497869018190385759 907.57089304806402197 84.009497869018190385759 57.14023356157488109
86.009497869018190385759 908.29653397984679941 86.009497869018190385759 56.93364653075786919
88.009497869018190385759 908.99536294306028594 88.009497869018190385759 56.73539940683611604
91.009497869018218807469 909.99658224268341655 91.009497869018218807469 56.44498399576200853
94.009497869018190385759 910.94533492302025479 94.009497869018190385759 56.16602036075222770
97.009497869018190385759 911.84569826570668738 97.009497869018190385759 55.89639529365744153
99.504748934509109403734 912.56037631817787315 99.504748934509109403734 55.72344896640591827
nan nan nan nan

