Time Pressure difference Time.1 Pressure.1 difference.1
(hr) (psi) (hr) (psi)
0.000200000000006639311 0.73489485084061290 0.000200000000006639311 0.58583189599485175
0.000399999999999067768 1.46937348557139780 0.000399999999999067768 1.53343158692725878
0.000600000000005707079 2.20349937835345200 0.000600000000005707079 2.24356195457449958
0.000799999999998135536 2.93730293293849076 0.000799999999998135536 2.96650648401377692
0.001007140329434719206 3.69697971853933405 0.001007140329434719206 3.72542695524049039
0.001267914553963578328 4.65290755860166261 0.001267914553963578328 4.68758921441300114
0.001596209851982166583 5.85566599140674526 0.001596209851982166583 5.89759774433852435
0.002009509145210586212 7.36880680735671501 0.002009509145210586212 7.41894834329877906
0.002529822128138903281 9.27214688733391590 0.002529822128138903281 9.33121669782732255
0.003184857364445292660 11.66587836030631742 0.003184857364445292660 11.73402906958788705
0.004009497869020606231 14.67568881271911962 0.004009497869020606231 14.75195793565485225
0.005047658755842121536 18.45912408502024959 0.005047658755842121536 18.54052704303018828
0.006354625877804664924 23.21347093876663692 0.006354625877804664924 23.29352899705723701
0.008000000000009777068 29.18548505595460085 0.008000000000009777068 29.25186692008800549
0.010071403294347192059 36.68333811228046670 0.010071403294347192059 36.71411971804190699
0.012679145539692626699 46.09119978981178889 0.012679145539692626699 46.04898183004537060
0.015962098519750611558 57.88689566105011863 0.015962098519750611558 57.70961782574291732
0.020095091452091651263 72.66307189267577371 0.020095091452091651263 72.24976192134863595
0.025298221281346400247 91.15222411745570241 0.025298221281346400247 90.34102698706365686
0.031848573644282396344 114.25576685272909572 0.031848573644282396344 112.79028890985138389
0.040094978690191851456 143.07696668364121706 0.040094978690191851456 140.55507534018056504
0.050476587558421215363 178.95694467469155597 0.050476587558421215363 174.75348041701940360
0.063546258777947173257 223.51194501388752656 0.063546258777947173257 216.66309690527745602
0.079999999999998294697 278.66850530342452430 0.079999999999998294697 267.70065685829911217
0.100714032943542974863 346.69085603741854129 0.100714032943542974863 329.37041154976520829
0.126791455396897845276 430.19162143629711181 0.126791455396897845276 403.16482998765764023
0.159620985197506115583 532.11253564175422071 0.159620985197506115583 490.39637251857880074
0.200950914520774404082 655.65643163735853705 0.200950914520774404082 591.93505794451243673
0.252982212813464002465 804.14560457857749043 0.252982212813464002465 707.82598525527669153
0.318485736442795541734 980.77607874432271728 0.318485736442795541734 836.76967910923656291
0.400949786901819038576 1188.23543127655284479 0.400949786901819038576 975.47722405461718154
0.504765875584169521062 1428.16009613208348128 0.504765875584169521062 1117.97906806659443646
0.635462587779443310865 1700.43760815090308824 0.635462587779443310865 1255.08808729697625495
0.799999999999997157829 2002.42409175463990323 0.799999999999997157829 1374.38536042262103365
1.007140329435330272645 2328.25396255036912407 1.007140329435330272645 1461.23091985081941857
1.267914553968893187630 2668.54333633123587788 1.267914553968893187630 1501.21881071933376006
1.596209851975103788391 3010.85244957251006781 1.596209851975103788391 1483.98403139252718574
2.009509145207687197399 3341.15465899800392435 2.009509145207687197399 1407.33065490283729559
2.529822128134711078928 3646.18714643463135872 2.529822128134711078928 1279.77393013092341789
3.184857364427983839050 3916.04244962089796900 3.184857364427983839050 1119.63878283327881036
4.009497869018190385759 4146.02883040977485507 4.009497869018190385759 950.23812689931810382
5.009497869018190385759 4331.29506027862134943 5.009497869018190385759 797.28699100672417899
6.009497869018190385759 4458.77893199273330538 6.009497869018190385759 689.99989098551532152
7.009497869018204596614 4552.58537085252464749 7.009497869018204596614 615.36129616302639533
8.009497869018190385759 4625.34341194898479444 8.009497869018190385759 562.82962348465719060
9.009497869018204596614 4684.13323939729343692 9.009497869018204596614 526.01429082031393136
10.009497869018190385759 4733.16417558543616906 10.009497869018190385759 499.74942694868360604
11.009497869018190385759 4775.07512695340574282 11.009497869018190385759 478.44488085250594622
12.009497869018190385759 4811.59511199263852177 12.009497869018190385759 462.20021168862268723
13.009497869018190385759 4843.90583287072877283 13.009497869018190385759 449.55055955490473707
14.009497869018204596614 4872.84351210713339242 14.009497869018204596614 439.50386153837587244
15.009497869018190385759 4899.01867419884547417 15.009497869018190385759 431.37332750535608739
16.009497869018190385759 4922.88946370244138961 16.009497869018190385759 424.67814640478053434
17.009497869018190385759 4944.80817855098757718 17.009497869018190385759 419.20308426237056665
18.009497869018190385759 4965.05146696733027056 18.009497869018190385759 414.40953294033266729
19.009497869018204596614 4983.83984480650815385 19.009497869018204596614 410.44479869105703074
20.009497869018190385759 5001.35283980075382715 20.009497869018190385759 406.80832389283290240
21.009497869018204596614 5017.73877254396484204 21.009497869018204596614 403.60491783000350097
22.009497869018190385759 5033.12064645679038222 22.009497869018190385759 400.75288383510962831
23.009497869018190385759 5047.60257485921465559 23.009497869018190385759 398.23359978477037657
24.009497869018190385759 5061.27336461342656548 24.009497869018190385759 395.89935620824792295
25.009497869018190385759 5074.20882013613572781 25.009497869018190385759 393.76589615654609133
26.009497869018204596614 5086.47522913532338862 26.009497869018204596614 391.84517772488800347
27.009497869018190385759 5098.12966471546769753 27.009497869018190385759 390.01530465166183603
28.009497869018190385759 5109.22283949305710848 28.009497869018190385759 388.30883818545515851
29.009497869018190385759 5119.79892753640342562 29.009497869018190385759 386.72099124010838977
30.009497869018190385759 5129.89758203326164221 30.009497869018190385759 385.20946039590137389
31.009497869018190385759 5139.55380534669075132 31.009497869018190385759 383.77872481190053122
32.009497869018190385759 5148.79911275510676205 32.009497869018190385759 382.41706572708153544
33.009497869018190385759 5157.66179903465581447 33.009497869018190385759 381.12433590895602720
34.009497869018190385759 5166.16727742636157927 34.009497869018190385759 379.87495384357748662
35.009497869018190385759 5174.33877981794194056 35.009497869018190385759 378.66946892347323228
36.009497869018190385759 5182.19716902586969809 36.009497869018190385759 377.50843859790205670
37.009497869018190385759 5189.76157470796715643 37.009497869018190385759 376.38505705954690939
38.009497869018190385759 5197.04948952150334662 38.009497869018190385759 375.29514781948535074
39.009497869018190385759 5204.07683000011456897 39.009497869018190385759 374.22706731162139704
40.009497869018190385759 5210.85830027523843455 40.009497869018190385759 373.17306765697048831
41.009497869018190385759 5217.40744057217398222 41.009497869018190385759 372.17288383006609820
42.009497869018190385759 5223.73668002410431654 42.009497869018190385759 371.17204585932768168
43.009497869018190385759 5229.85755191197040403 43.009497869018190385759 370.21502855864935100
44.009497869018218807469 5235.78075521188293351 44.009497869018218807469 369.25110684793196469
46.009497869018190385759 5247.07304852432935149 46.009497869018190385759 367.38040472740021869
48.009497869018190385759 5257.68488020559470897 48.009497869018190385759 365.58035896288839695
50.009497869018190385759 5267.67831100258717925 50.009497869018190385759 363.79835520901929158
52.009497869018190385759 5277.10761628355703579 52.009497869018190385759 362.06682454592737486
54.009497869018190385759 5286.02070452648058563 54.009497869018190385759 360.39413868403471497
56.009497869018190385759 5294.45980562070235464 56.009497869018190385759 358.75501188854468637
58.009497869018218807469 5302.46267930170779437 58.009497869018218807469 357.06980619329726778
60.009497869018190385759 5310.06279911813544459 60.009497869018190385759 355.49436739140406871
62.009497869018190385759 5317.29042168678643066 62.009497869018190385759 353.94708982692776544
64.009497869018190385759 5324.17257149152283091 64.009497869018190385759 352.42638217456527627
66.009497869018190385759 5330.73374844918362214 66.009497869018190385759 350.90635753091316928
68.009497869018190385759 5336.99620097456227086 68.009497869018190385759 349.39725091868496065
70.009497869018190385759 5342.97986548933386075 70.009497869018190385759 347.96117205638938685
72.009497869018218807469 5348.70327817976067308 72.009497869018218807469 346.52741455183445396
74.009497869018190385759 5354.18311610986893356 74.009497869018190385759 345.13600867696641217
76.009497869018190385759 5359.43463797763433831 76.009497869018190385759 343.77366008467998881
78.009497869018190385759 5364.47206794334942970 78.009497869018190385759 342.43011839482250025
80.009497869018190385759 5369.30823233551473095 80.009497869018190385759 341.12429581608364515
82.009497869018218807469 5373.95499226006086246 82.009497869018218807469 339.85199313055437642
84.009497869018190385759 5378.42348027812386135 84.009497869018190385759 338.62299486490348954
86.009497869018190385759 5382.72375506177650095 86.009497869018190385759 337.39872407153825407
88.009497869018190385759 5386.86513744108924584 88.009497869018190385759 336.22387702172011359
91.009497869018218807469 5392.79853772006390500 91.009497869018218807469 334.50282461918021681
94.009497869018190385759 5398.42101165789881634 94.009497869018190385759 332.84963743989402474
97.009497869018190385759 5403.75672193703940138 97.009497869018190385759 331.25179224362096875
99.504748934509109403734 5407.99202878490632429 99.504748934509109403734 330.22688212977465128
nan nan nan nan

