Time Pressure difference Time.1 Pressure.1 difference.1
(hr) (psi) (hr) (psi)
0.000200000000006639311 0.18143496883720681 0.000200000000006639311 0.14463346922636203
0.000399999999999067768 0.36276717990324431 0.000399999999999067768 0.37858220379404578
0.000600000000005707079 0.54401230405555223 0.000600000000005707079 0.55390317791307009
0.000799999999998135536 0.72517784754313819 0.000799999999998135536 0.73238778427520201
0.001007140329434719206 0.91273111963938258 0.001007140329434719206 0.91975433323038147
0.001267914553963578328 1.14873595444525756 0.001267914553963578328 1.15729835644624490
0.001596209851982166583 1.44567971248773541 0.001596209851982166583 1.45603205919116463
0.002009509145210586212 1.81925241676530458 0.002009509145210586212 1.83163164081442109
0.002529822128138903281 2.28915970717870199 0.002529822128138903281 2.30374319380108350
0.003184857364445292660 2.88013757932817382 0.003184857364445292660 2.89696300925272832
0.004009497869020606231 3.62321649056938622 0.004009497869020606231 3.64204624005974820
0.005047658755842121536 4.55729224296083135 0.005047658755842121536 4.57738946249216472
0.006354625877804664924 5.73107210039765214 0.006354625877804664924 5.75083728353168411
0.008000000000009777068 7.20547649173058069 0.008000000000009777068 7.22186521922897473
0.010071403294347192059 9.05658857132179129 0.010071403294347192059 9.06418810705904399
0.012679145539692626699 11.37925430824345341 0.012679145539692626699 11.36883130118900276
0.015962098519750611558 14.29144196388326904 0.015962098519750611558 14.24767461609508068
0.020095091452091651263 17.93946735289164351 0.020095091452091651263 17.83742706551982593
0.025298221281346400247 22.50417311167083412 0.025298221281346400247 22.30390020745172919
0.031848573644282396344 28.20810551969982072 0.031848573644282396344 27.84630009325889333
0.040094978690191851456 35.32364522880383362 0.040094978690191851456 34.70102652792679265
0.050476587558421215363 44.18189574075058346 0.050476587558421215363 43.14412087305801435
0.063546258777947173257 55.18188449946487140 0.063546258777947173257 53.49100240696544262
0.079999999999998294697 68.79924592995079990 0.079999999999998294697 66.09144189706590566
0.100714032943542974863 85.59298597526301933 0.100714032943542974863 81.31681734750716828
0.126791455396897845276 106.20812397861014631 0.126791455396897845276 99.53559789049758422
0.159620985197506115583 131.37093178924394010 0.159620985197506115583 121.07181110877711205
0.200950914520774404082 161.87214280514626807 0.200950914520774404082 146.14025213126129188
0.252982212813464002465 198.53198391634188624 0.252982212813464002465 174.75205524988712114
0.318485736442795541734 242.13950754956101719 0.318485736442795541734 206.58639869288063551
0.400949786901819038576 293.35823784630639466 0.400949786901819038576 240.83129653896551758
0.504765875584169521062 352.59218681403643814 0.504765875584169521062 276.01295225200180994
0.635462587779443310865 419.81358842230679329 0.635462587779443310865 309.86319709030669856
0.799999999999997157829 494.36970781711374912 0.799999999999997157829 339.31597799788380598
1.007140329435330272645 574.81241657528937594 1.007140329435330272645 360.75689753961336237
1.267914553968893187630 658.82496865255882312 1.267914553968893187630 370.62933265777439829
1.596209851975103788391 743.33616535312251017 1.596209851975103788391 366.37431352612787805
2.009509145207687197399 824.88303019429758933 2.009509145207687197399 347.44969735993038285
2.529822128134711078928 900.19116412542427952 2.529822128134711078928 315.95777663481464970
3.184857364427983839050 966.81455721104839540 3.184857364427983839050 276.42271195657394856
4.009497869018190385759 1023.59488678293439534 4.009497869018190385759 234.60012645985429458
5.009497869018190385759 1069.33445429302332741 5.009497869018190385759 196.83869087142227272
6.009497869018190385759 1100.80838864599741100 6.009497869018190385759 170.35104896358134852
7.009497869018204596614 1123.96784920254867757 7.009497869018204596614 151.92385341284230549
8.009497869018190385759 1141.93076308593253998 8.009497869018190385759 138.95453898035705720
9.009497869018204596614 1156.44512592141541063 9.009497869018204596614 129.86536285258031853
10.009497869018190385759 1168.55015886480737208 10.009497869018190385759 123.38094572459004894
11.009497869018190385759 1178.89736996131637170 11.009497869018190385759 118.12115971217021126
12.009497869018190385759 1187.91362900837521011 12.009497869018190385759 114.11058453920696820
13.009497869018190385759 1195.89068127499331240 13.009497869018190385759 110.98756736463107586
14.009497869018204596614 1203.03497807401504360 14.009497869018204596614 108.50718212385724826
15.009497869018190385759 1209.49724912270471577 15.009497869018190385759 106.49987021083535410
16.009497869018190385759 1215.39060372268636456 16.009497869018190385759 104.84692629245996898
17.009497869018190385759 1220.80201916660848838 17.009497869018190385759 103.49521219614584311
18.009497869018190385759 1225.79979592171912373 18.009497869018190385759 102.31175331935732231
19.009497869018204596614 1230.43837618099519204 19.009497869018204596614 101.33291745713525245
20.009497869018190385759 1234.76208275941598913 20.009497869018190385759 100.43512413209239753
21.009497869018204596614 1238.80753387835147805 21.009497869018204596614 99.64424924908354342
22.009497869018190385759 1242.60509731322781590 22.009497869018190385759 98.94012307593872890
23.009497869018190385759 1246.18047714531007841 23.009497869018190385759 98.31814807823323576
24.009497869018190385759 1249.55559851158204765 24.009497869018190385759 97.74185691211556559
25.009497869018190385759 1252.74917643225103348 25.009497869018190385759 97.21513631044965109
26.009497869018204596614 1255.77757638901516657 26.009497869018204596614 96.74093855495536332
27.009497869018190385759 1258.65488891050040365 27.009497869018190385759 96.28916921184855937
28.009497869018190385759 1261.39363421232883411 28.009497869018190385759 95.86786718508406580
29.009497869018190385759 1264.00471823662064708 29.009497869018190385759 95.47585061194068601
30.009497869018190385759 1266.49793078510879241 30.009497869018190385759 95.10267538653057784
31.009497869018190385759 1268.88191343780113129 31.009497869018190385759 94.74944734880443775
32.009497869018190385759 1271.16444686366162387 32.009497869018190385759 94.41327330521377803
33.009497869018190385759 1273.35251663596250182 33.009497869018190385759 94.09411690617487523
34.009497869018190385759 1275.45239691839947227 34.009497869018190385759 93.78566244382774642
35.009497869018190385759 1277.46982332991115072 35.009497869018190385759 93.48804555528558069
36.009497869018190385759 1279.40994659981834047 36.009497869018190385759 93.20140386675271316
37.009497869018190385759 1281.27748956550044568 37.009497869018190385759 92.92405712228904235
38.009497869018190385759 1283.07677091244363510 38.009497869018190385759 92.65497420684914687
39.009497869018190385759 1284.81172020387884913 39.009497869018190385759 92.39128049143087651
40.009497869018190385759 1286.48596767837148036 40.009497869018190385759 92.13106313614900955
41.009497869018190385759 1288.10285622280161988 41.009497869018190385759 91.88413213471621077
42.009497869018190385759 1289.66545441138691785 42.009497869018190385759 91.63703963457919599
43.009497869018190385759 1291.17660964531114587 43.009497869018190385759 91.40076582761672341
44.009497869018218807469 1292.63896334789410503 44.009497869018218807469 91.16278742112024247
46.009497869018190385759 1295.42686815209958695 46.009497869018190385759 90.70093797346912368
48.009497869018190385759 1298.04677676649998830 48.009497869018190385759 90.25653256388410739
50.009497869018190385759 1300.51401109690164049 50.009497869018190385759 89.81658146723241032
52.009497869018190385759 1302.84197095109311704 52.009497869018190385759 89.38909145074991613
54.009497869018190385759 1305.04248424323077415 54.009497869018190385759 88.97612936933134620
56.009497869018190385759 1307.12597692560962059 56.009497869018190385759 88.57145253873470381
58.009497869018218807469 1309.10177133383058390 58.009497869018218807469 88.15539949053092528
60.009497869018190385759 1310.97813160560986034 60.009497869018190385759 87.76644630954257309
62.009497869018190385759 1312.76252766446145870 62.009497869018190385759 87.38444573303539187
64.009497869018190385759 1314.46163146676326505 64.009497869018190385759 87.00900488567975799
66.009497869018190385759 1316.08149168960585484 66.009497869018190385759 86.63373266335115375
68.009497869018190385759 1317.62760114660795807 68.009497869018190385759 86.26115594594939751
70.009497869018190385759 1319.10488185353869994 70.009497869018190385759 85.90660872966351747
72.009497869018218807469 1320.51791012818557647 72.009497869018218807469 85.55263462321620693
74.009497869018190385759 1321.87080329779337262 74.009497869018190385759 85.20911652500417688
76.009497869018190385759 1323.16732851542951721 76.009497869018190385759 84.87277225193683705
78.009497869018190385759 1324.41099752168747727 78.009497869018190385759 84.54107113258358197
80.009497869018190385759 1325.60497695259596185 80.009497869018190385759 84.21868231925961368
82.009497869018218807469 1326.75219514461309700 82.009497869018218807469 83.90456908545964154
84.009497869018190385759 1327.85540056696618194 84.009497869018190385759 83.60114709008941247
86.009497869018190385759 1328.91707656111816505 86.009497869018190385759 83.29889223963232325
88.009497869018190385759 1329.93952430595390979 88.009497869018190385759 83.00883940060586497
91.009497869018218807469 1331.40439549600660030 91.009497869018218807469 82.58393631594709916
94.009497869018190385759 1332.79250344441902598 94.009497869018190385759 82.17578817881869213
97.009497869018190385759 1334.10981356995989699 97.009497869018190385759 81.78130318132430432
99.504748934509109403734 1335.15544991518640927 99.504748934509109403734 81.52826761527845179
nan nan nan nan

