Time Pressure difference Time.1 Pressure.1 difference.1
(hr) (psi) (hr) (psi)
0.000200000000006639311 0.41863206112438084 0.000200000000006639311 0.33371850927000046
0.000399999999999067768 0.83702702518959582 0.000399999999999067768 0.87351765370827994
0.000600000000005707079 1.25522105018322372 0.000600000000005707079 1.27804265362511127
0.000799999999998135536 1.67323145556971808 0.000799999999998135536 1.68986722702030545
0.001007140329434719206 2.10598051916793327 0.001007140329434719206 2.12218545694899996
0.001267914553963578328 2.65052378479800277 0.001267914553963578328 2.67028015271771180
0.001596209851982166583 3.33567383202445367 0.001596209851982166583 3.35956020996860394
0.002009509145210586212 4.19763286987590956 0.002009509145210586212 4.22619594187914593
0.002529822128138903281 5.28186849867379316 0.002529822128138903281 5.31551755266947179
0.003184857364445292660 6.64545505689023575 0.003184857364445292660 6.68427703511065374
0.004009497869020606231 8.35999034291927146 0.004009497869020606231 8.40343696674336371
0.005047658755842121536 10.51522017527201136 0.005047658755842121536 10.56159128272274650
0.006354625877804664924 13.22352874541292955 0.006354625877804664924 13.26913373218549097
0.008000000000009777068 16.62548016211230362 0.008000000000009777068 16.66329451959713026
0.010071403294347192059 20.89662408887550527 0.010071403294347192059 20.91415879748027251
0.012679145539692626699 26.25580237177274157 0.012679145539692626699 26.23175295641315685
0.015962098519750611558 32.97520783409763823 0.015962098519750611558 32.87422170594415860
0.020095091452091651263 41.39244072708484623 0.020095091452091651263 41.15699914658932101
0.025298221281346400247 51.92476639986434606 0.025298221281346400247 51.46266882728541248
0.031848573644282396344 65.08567466242665489 0.031848573644282396344 64.25086672894138928
0.040094978690191851456 81.50364013801986118 0.040094978690191851456 80.06704744746411961
0.050476587558421215363 101.94263099815385942 0.050476587558421215363 99.54813210618431185
0.063546258777947173257 127.32333900564601947 0.063546258777947173257 123.42190004909916468
0.079999999999998294697 158.74321423286812660 0.079999999999998294697 152.49539116616583101
0.100714032943542974863 197.49207314475825115 0.100714032943542974863 187.62550057704635265
0.126791455396897845276 245.05819431761881333 0.126791455396897845276 229.66241164642332251
0.159620985197506115583 303.11733344031978277 0.159620985197506115583 279.35376599869215397
0.200950914520774404082 373.49398087609438335 0.200950914520774404082 337.19516890836894163
0.252982212813464002465 458.08067848587143089 0.252982212813464002465 403.21231096648267567
0.318485736442795541734 558.69803806160177828 0.318485736442795541734 476.66494744274746154
0.400949786901819038576 676.87703503069769795 0.400949786901819038576 555.67955118853046770
0.504765875584169521062 813.54986223605669693 0.504765875584169521062 636.85557331539871484
0.635462587779443310865 968.65245402027653654 0.635462587779443310865 714.95957860745079415
0.799999999999997157829 1140.67872950462492554 0.799999999999997157829 782.91714189419974446
1.007140329435330272645 1326.28736485032368364 1.007140329435330272645 832.38862138727301954
1.267914553968893187630 1520.13284051484902193 1.267914553968893187630 855.16768039844271243
1.596209851975103788391 1715.12885859000289202 1.596209851975103788391 845.34990689744176962
2.009509145207687197399 1903.28515682445754464 2.009509145207687197399 801.68439344974774485
2.529822128134711078928 2077.04658511508432639 2.529822128134711078928 729.02184241886129712
3.184857364427983839050 2230.76936824384074498 3.184857364427983839050 637.80102804659031790
4.009497869018190385759 2361.78086262300894305 4.009497869018190385759 541.30212664819600832
5.009497869018190385759 2467.31757114399397324 5.009497869018190385759 454.17367664369453450
6.009497869018190385759 2539.93862150888435281 6.009497869018190385759 393.05769554441025093
7.009497869018204596614 2593.37535848111019732 7.009497869018204596614 350.53990030577830339
8.009497869018190385759 2634.82189831295454496 8.009497869018190385759 320.61528948220001212
9.009497869018204596614 2668.31146026822034401 9.009497869018204596614 299.64347483875189937
10.009497869018190385759 2696.24188031650510311 10.009497869018190385759 284.68172339205870003
11.009497869018190385759 2720.11640867221194640 11.009497869018190385759 272.54561162945697106
12.009497869018190385759 2740.91997885877435692 12.009497869018190385759 263.29185331752796628
13.009497869018190385759 2759.32574624459448387 13.009497869018190385759 256.08599258903410600
14.009497869018204596614 2775.81006408820849174 14.009497869018204596614 250.36290187293667486
15.009497869018190385759 2790.72071701247932651 15.009497869018190385759 245.73135190848708476
16.009497869018190385759 2804.31868657115228416 16.009497869018190385759 241.91744919774021128
17.009497869018190385759 2816.80465890277127983 17.009497869018190385759 238.79858593881357365
18.009497869018190385759 2828.33622636983818666 18.009497869018190385759 236.06794458548961302
19.009497869018204596614 2839.03900559192925357 19.009497869018204596614 233.80943798595887984
20.009497869018190385759 2849.01526434856077685 20.009497869018190385759 231.73792402955263015
21.009497869018204596614 2858.34949330647168608 21.009497869018204596614 229.91310721233497816
22.009497869018190385759 2867.11176123189716236 22.009497869018190385759 228.28844911558337571
23.009497869018190385759 2875.36137616555470231 23.009497869018190385759 226.85334166674914513
24.009497869018190385759 2883.14892684094411379 24.009497869018190385759 225.52364232474371875
25.009497869018190385759 2890.51759516248739601 25.009497869018190385759 224.30831910163382759
26.009497869018204596614 2897.50514185171869030 26.009497869018204596614 223.21418391349789090
27.009497869018190385759 2904.14407854120054253 27.009497869018190385759 222.17179868605424531
28.009497869018190385759 2910.46329361835523741 28.009497869018190385759 221.19971189952883606
29.009497869018190385759 2916.48795079367073413 29.009497869018190385759 220.29519659544112642
30.009497869018190385759 2922.24063846288891000 30.009497869018190385759 219.43415467626093118
31.009497869018190385759 2927.74129568446778649 31.009497869018190385759 218.61913769013133901
32.009497869018190385759 2933.00787510285226745 32.009497869018190385759 217.84347005744280068
33.009497869018190385759 2938.05649480683086949 33.009497869018190385759 217.10706790736679750
34.009497869018190385759 2942.90163142181199873 34.009497869018190385759 216.39535875800621056
35.009497869018190385759 2947.55651896763902187 35.009497869018190385759 215.70865557022312942
36.009497869018190385759 2952.03304192526866245 36.009497869018190385759 215.04727589438817859
37.009497869018190385759 2956.34209748370085435 37.009497869018190385759 214.40734280968527514
38.009497869018190385759 2960.49365031632623868 38.009497869018190385759 213.78647718369319364
39.009497869018190385759 2964.49676725940844335 39.009497869018190385759 213.17804627151252816
40.009497869018190385759 2968.35982450560004509 40.009497869018190385759 212.57763650221536977
41.009497869018190385759 2972.09053522967542449 41.009497869018190385759 212.00788286129471771
42.009497869018190385759 2975.69597967398021865 42.009497869018190385759 211.43775658804284490
43.009497869018190385759 2979.18272775959394494 43.009497869018190385759 210.89259271234502080
44.009497869018218807469 2982.55687414674684987 44.009497869018218807469 210.34349574689670703
46.009497869018190385759 2988.98951688305533025 46.009497869018190385759 209.27785229658246635
48.009497869018190385759 2995.03453538325493355 48.009497869018190385759 208.25245816345733374
50.009497869018190385759 3000.72728248505245574 50.009497869018190385759 207.23734164228392274
52.009497869018190385759 3006.09867609357706897 52.009497869018190385759 206.25097706296884326
54.009497869018190385759 3011.17600722176621275 54.009497869018190385759 205.29813336134708379
56.009497869018190385759 3015.98333208064923383 56.009497869018190385759 204.36440654579612897
58.009497869018218807469 3020.54216046292094688 58.009497869018218807469 203.40443093457363943
60.009497869018190385759 3024.87156053954959134 60.009497869018190385759 202.50698391605465076
62.009497869018190385759 3028.98876795974365450 62.009497869018190385759 201.62557891613212746
64.009497869018190385759 3032.90917719166009192 64.009497869018190385759 200.75930943805926177
66.009497869018190385759 3036.64674458656782008 66.009497869018190385759 199.89342903516345018
68.009497869018190385759 3040.21414393001668941 68.009497869018190385759 199.03376807712177765
70.009497869018190385759 3043.62273198316506750 70.009497869018190385759 198.21570729826032675
72.009497869018218807469 3046.88306786457496855 72.009497869018218807469 197.39896887833830874
74.009497869018190385759 3050.00465164582601574 74.009497869018190385759 196.60635601870231426
76.009497869018190385759 3052.99617542780288204 76.009497869018190385759 195.83029560882673081
78.009497869018190385759 3055.86574198811422320 78.009497869018190385759 195.06494853068596740
80.009497869018190385759 3058.62065783098978500 80.009497869018190385759 194.32108810361276596
82.009497869018218807469 3061.26767962266239920 82.009497869018218807469 193.59632224764311559
84.009497869018190385759 3063.81314901460564215 84.009497869018190385759 192.89622470786687813
86.009497869018190385759 3066.26279591854336104 86.009497869018190385759 192.19882016759197541
88.009497869018190385759 3068.62192993529788509 88.009497869018190385759 191.52956980965478806
91.009497869018218807469 3072.00188502060245810 91.009497869018218807469 190.54917416018986387
94.009497869018190385759 3075.20472125019614396 94.009497869018190385759 189.60743786213669182
97.009497869018190385759 3078.24420287013708730 97.009497869018190385759 188.69722706516571975
99.504748934509109403734 3080.65684085935208714 99.504748934509109403734 188.11338812149111277
nan nan nan nan

