Time Pressure difference Time.1 Pressure.1 difference.1
(hr) (psi) (hr) (psi)
0.000200000000006639311 0.68329407988691182 0.000200000000006639311 0.54469760658184974
0.000399999999999067768 1.36620116835120897 0.000399999999999067768 1.42576141887574126
0.000600000000005707079 2.04878028270462531 0.000600000000005707079 2.08602985810380970
0.000799999999998135536 2.73105969189411191 0.000799999999998135536 2.75821271050431571
0.001007140329434719206 3.43739563864189490 0.001007140329434719206 3.46384544762450997
0.001267914553963578328 4.32620283761264535 0.001267914553963578328 4.35844931487324416
0.001596209851982166583 5.44450937592858164 0.001596209851982166583 5.48349688346764275
0.002009509145210586212 6.85140474387300458 0.002009509145210586212 6.89802558306715419
0.002529822128138903281 8.62110146602621263 0.002529822128138903281 8.67602367940683195
0.003184857364445292660 10.84675666343316713 0.003184857364445292660 10.91012215869949742
0.004009497869020606231 13.64523274659388186 0.004009497869020606231 13.71614661967455717
0.005047658755842121536 17.16301344711395771 0.005047658755842121536 17.23870068213792095
0.006354625877804664924 21.58353300195629387 0.006354625877804664924 21.65796976963079246
0.008000000000009777068 27.13622109959085904 0.008000000000009777068 27.19794194948159927
0.010071403294347192059 34.10761108740912562 0.010071403294347192059 34.13623135731869240
0.012679145539692626699 42.85489810581594128 0.012679145539692626699 42.81564448750537366
0.015962098519750611558 53.82235712086313839 0.015962098519750611558 53.65752687988101144
0.020095091452091651263 67.56102154460567988 0.020095091452091651263 67.17673220546684831
0.025298221281346400247 84.75195470037500911 0.025298221281346400247 83.99771591888931255
0.031848573644282396344 106.23327812694292049 0.031848573644282396344 104.87069897507133476
0.040094978690191851456 133.03079235251351520 0.040094978690191851456 130.68597605242158011
0.050476587558421215363 166.39145139062489420 0.050476587558421215363 162.48313411367263370
0.063546258777947173257 207.81801455991129046 0.063546258777947173257 201.45005952347995049
0.079999999999998294697 259.10174728664952681 0.079999999999998294697 248.90400824537209701
0.100714032943542974863 322.34789672335290334 0.100714032943542974863 306.24361028579534150
0.126791455396897845276 399.98564122219693218 0.126791455396897845276 374.85654067935098510
0.159620985197506115583 494.75016054573069368 0.159620985197506115583 455.96310513901840977
0.200950914520774404082 609.61940019736277918 0.200950914520774404082 550.37223394387854114
0.252982212813464002465 747.68237979503066981 0.252982212813464002465 658.12585945026307854
0.318485736442795541734 911.91071421187893975 0.318485736442795541734 778.01574920575683336
0.400949786901819038576 1104.80327188907131131 0.400949786901819038576 906.98391953436100721
0.504765875584169521062 1327.88158428588963034 0.504765875584169521062 1039.47997155455732354
0.635462587779443310865 1581.04108300327447978 0.635462587779443310865 1166.96185693184315824
0.799999999999997157829 1861.82353265068991277 0.799999999999997157829 1277.88265108377345314
1.007140329435330272645 2164.77520187299342069 1.007140329435330272645 1358.63033431203029977
1.267914553968893187630 2481.17109754014154532 1.267914553968893187630 1395.81046840382009577
1.596209851975103788391 2799.44491630694301421 1.596209851975103788391 1379.78583213280262498
2.009509145207687197399 3106.55489811705729153 2.009509145207687197399 1308.51468592891205844
2.529822128134711078928 3390.16947590354766362 2.529822128134711078928 1189.91437897790274292
3.184857364427983839050 3641.07684160674625673 3.184857364427983839050 1041.02314915755619040
4.009497869018190385759 3854.91468829719769928 4.009497869018190385759 883.51699001624035645
5.009497869018190385759 4027.17241731455078479 5.009497869018190385759 741.30534497907194691
6.009497869018190385759 4145.70498659799977759 6.009497869018190385759 641.55142751880862306
7.009497869018204596614 4232.92478988666334772 7.009497869018204596614 572.15359473368596355
8.009497869018190385759 4300.57411235573727026 8.009497869018190385759 523.31044267372999457
9.009497869018204596614 4355.23600174991770473 9.009497869018204596614 489.08010505490119613
10.009497869018190385759 4400.82422214682082995 10.009497869018190385759 464.65943321049741144
11.009497869018190385759 4439.79238870752578805 11.009497869018190385759 444.85078955821899171
12.009497869018190385759 4473.74811658658745728 12.009497869018190385759 429.74674269123357817
13.009497869018190385759 4503.79013452646449878 13.009497869018190385759 417.98528810257846544
14.009497869018204596614 4530.69594953562500450 14.009497869018204596614 408.64402075085683919
15.009497869018190385759 4555.03321802633399784 15.009497869018190385759 401.08437359218271467
16.009497869018190385759 4577.22791585470440623 16.009497869018190385759 394.85929580784238624
17.009497869018190385759 4597.60760429259516968 17.009497869018190385759 389.76866611484280156
18.009497869018190385759 4616.42950665931766707 18.009497869018190385759 385.31169484033193839
19.009497869018204596614 4633.89865525044479000 19.009497869018204596614 381.62534510233047058
20.009497869018190385759 4650.18197222697472171 20.009497869018190385759 378.24420602040299855
21.009497869018204596614 4665.41736382626822888 21.009497869018204596614 375.26572767659445162
22.009497869018190385759 4679.71919676220204565 22.009497869018190385759 372.61394974929214641
23.009497869018190385759 4693.18427401972257940 23.009497869018190385759 370.27155767077744031
24.009497869018190385759 4705.89516687159994035 24.009497869018190385759 368.10121341672879680
25.009497869018190385759 4717.92235711412013188 25.009497869018190385759 366.11755463706037972
26.009497869018204596614 4729.32747805220878945 26.009497869018204596614 364.33169978724015436
27.009497869018190385759 4740.16359539229688380 27.009497869018190385759 362.63031157306272689
28.009497869018190385759 4750.47786095560513786 28.009497869018190385759 361.04366494933032072
29.009497869018190385759 4760.31134712048333313 29.009497869018190385759 359.56730895597848985
30.009497869018190385759 4769.70092281914821797 30.009497869018190385759 358.16191051532848633
31.009497869018190385759 4778.67913271759061900 31.009497869018190385759 356.83163428150663776
32.009497869018190385759 4787.27527924342302867 32.009497869018190385759 355.56558432835100803
33.009497869018190385759 4795.51567045011506707 33.009497869018190385759 354.36362376132825602
34.009497869018190385759 4803.42393518351400417 34.009497869018190385759 353.20196727698430550
35.009497869018190385759 4811.02167410026140715 35.009497869018190385759 352.08112569215347776
36.009497869018190385759 4818.32828513050844776 36.009497869018190385759 351.00161731469717097
37.009497869018190385759 4825.36155473979761155 37.009497869018190385759 349.95711420825369942
38.009497869018190385759 4832.13774733539503359 38.009497869018190385759 348.94373313680341653
39.009497869018190385759 4838.67166186873600964 39.009497869018190385759 347.95064808928788125
40.009497869018190385759 4844.97697001808683126 40.009497869018190385759 346.97065520540519401
41.009497869018190385759 4851.06626127945128246 41.009497869018190385759 346.04069946147706105
42.009497869018190385759 4856.95109207224140846 42.009497869018190385759 345.11013550453907328
43.009497869018190385759 4862.64218586605693417 43.009497869018190385759 344.22031534162078970
44.009497869018218807469 4868.14949040651845280 44.009497869018218807469 343.32407556302621288
46.009497869018190385759 4878.64889336180567625 46.009497869018190385759 341.58472512026679624
48.009497869018190385759 4888.51561341879187239 48.009497869018190385759 339.91106988508647646
50.009497869018190385759 4897.80735371814716927 50.009497869018190385759 338.25418983760459923
52.009497869018190385759 4906.57457867361245007 52.009497869018190385759 336.64423890397102923
54.009497869018190385759 4914.86183286097457312 54.009497869018190385759 335.08900097349095404
56.009497869018190385759 4922.70838099048341974 56.009497869018190385759 333.56496575367521018
58.009497869018218807469 4930.14933149116859568 58.009497869018218807469 331.99808707213708203
60.009497869018190385759 4937.21580756057664985 60.009497869018190385759 330.53326798226817118
62.009497869018190385759 4943.93594134184786526 62.009497869018190385759 329.09463278358742855
64.009497869018190385759 4950.33485978996668564 64.009497869018190385759 327.68070188597744163
66.009497869018190385759 4956.43534255580925674 66.009497869018190385759 326.26740603950139530
68.009497869018190385759 4962.25807587782128394 68.009497869018190385759 324.86426161295622705
70.009497869018190385759 4967.82159633832634427 70.009497869018190385759 323.52901728006310123
72.009497869018218807469 4973.14313860201946227 72.009497869018218807469 322.19593131036924660
74.009497869018190385759 4978.23820874994635233 74.009497869018190385759 320.90222324324969350
76.009497869018190385759 4983.12099408792528266 76.009497869018190385759 319.63553219651441850
78.009497869018190385759 4987.80472002433725720 78.009497869018190385759 318.38632752225282729
80.009497869018190385759 4992.30131228477694094 80.009497869018190385759 317.17219350510151799
82.009497869018218807469 4996.62179914553780691 82.009497869018218807469 315.98922577597414829
84.009497869018190385759 5000.77653149302386737 84.009497869018190385759 314.84652183928170643
86.009497869018190385759 5004.77486172788121621 86.009497869018190385759 313.70821343457856756
88.009497869018190385759 5008.62545621645949723 88.009497869018190385759 312.61585847659364390
91.009497869018218807469 5014.14224175330946309 91.009497869018218807469 311.01565007060810331
94.009497869018190385759 5019.36993269664253603 94.009497869018190385759 309.47854171931260225
97.009497869018190385759 5024.33099514191417256 97.009497869018190385759 307.99288950397823328
99.504748934509109403734 5028.26891917600005399 99.504748934509109403734 307.03994363368627774
nan nan nan nan

