Time Pressure difference Time.1 Pressure.1 difference.1
(hr) (psi) (hr) (psi)
0.000200000000006639311 0.32042414221249826 0.000200000000006639311 0.25543066812912563
0.000399999999999067768 0.64066680854472047 0.000399999999999067768 0.66859701128764970
0.000600000000005707079 0.96075567459352118 0.000600000000005707079 0.97822350227766963
0.000799999999998135536 1.28070399680783598 0.000799999999998135536 1.29343714195391168
0.001007140329434719206 1.61193339936312996 0.001007140329434719206 1.62433678116374725
0.001267914553963578328 2.02873092872212935 0.001267914553963578328 2.04385260198075391
0.001596209851982166583 2.55314995095311081 0.001596209851982166583 2.57143276508531349
0.002009509145210586212 3.21289991034239586 0.002009509145210586212 3.23476230143831245
0.002529822128138903281 4.04278205166880866 0.002529822128138903281 4.06853729180466583
0.003184857364445292660 5.08648150477682037 0.003184857364445292660 5.11619614019403901
0.004009497869020606231 6.39879976545510942 0.004009497869020606231 6.43205413955506078
0.005047658755842121536 8.04842896119229501 0.005047658755842121536 8.08392175715359151
0.006354625877804664924 10.12138880116099138 0.006354625877804664924 10.15629520256742424
0.008000000000009777068 12.72526811612969588 0.008000000000009777068 12.75421151102364803
0.010071403294347192059 15.99443394476554836 0.010071403294347192059 16.00785514320060443
0.012679145539692626699 20.09638948932903446 0.012679145539692626699 20.07798188512736814
0.015962098519750611558 25.23947319309660031 0.015962098519750611558 25.16217764769085363
0.020095091452091651263 31.68208683882239640 0.020095091452091651263 31.50187807442721066
0.025298221281346400247 39.74360847703334798 0.025298221281346400247 39.38991550398585417
0.031848573644282396344 49.81706708754327195 0.031848573644282396344 49.17809878855354810
0.040094978690191851456 62.38350189490584796 0.040094978690191851456 61.28392299656796638
0.050476587558421215363 78.02765990912372729 0.050476587558421215363 76.19489236755659078
0.063546258777947173257 97.45424556098154767 0.063546258777947173257 94.46805470954906525
0.079999999999998294697 121.50325542674795543 0.079999999999998294697 116.72112445124025726
0.100714032943542974863 151.16192477282689310 0.100714032943542974863 143.60997559078097652
0.126791455396897845276 187.56939326497663956 0.126791455396897845276 175.78534489835584509
0.159620985197506115583 232.00829696724275664 0.159620985197506115583 213.81948292146418567
0.200950914520774404082 285.87511458707024303 0.200950914520774404082 258.09172968135595738
0.252982212813464002465 350.61841196234689733 0.252982212813464002465 308.62174895048877943
0.318485736442795541734 427.63169911275684854 0.318485736442795541734 364.84295181999556235
0.400949786901819038576 518.08679619645852199 0.400949786901819038576 425.32132645642991520
0.504765875584169521062 622.69721065781675406 0.504765875584169521062 487.45406705055370367
0.635462587779443310865 741.41390615866100688 0.635462587779443310865 547.23546275122976112
0.799999999999997157829 873.08411701646241454 0.799999999999997157829 599.25069508800584117
1.007140329435330272645 1015.15036872241455512 1.007140329435330272645 637.11653923280346135
1.267914553968893187630 1163.52116023502344433 1.267914553968893187630 654.55180308827129920
1.596209851975103788391 1312.77258560069799387 1.596209851975103788391 647.03720508054686888
2.009509145207687197399 1456.78883772846165812 2.009509145207687197399 613.61529120905140644
2.529822128134711078928 1589.78714765269887721 2.529822128134711078928 557.99882570827355721
3.184857364427983839050 1707.44772718464946593 3.184857364427983839050 488.17772524440812276
4.009497869018190385759 1807.72491473132890860 4.009497869018190385759 414.31673709653165361
5.009497869018190385759 1888.50350872850412998 5.009497869018190385759 347.62796323622740147
6.009497869018190385759 1944.08820930600450083 6.009497869018190385759 300.84932959164603972
7.009497869018204596614 1984.98909148156553783 7.009497869018204596614 268.30588790800129573
8.009497869018190385759 2016.71258618387196293 8.009497869018190385759 245.40136471301590859
9.009497869018204596614 2042.34574990708733822 9.009497869018204596614 229.34937934974050222
10.009497869018190385759 2063.72390441720563103 10.009497869018190385759 217.89754176131728514
11.009497869018190385759 2081.99764878489395414 11.009497869018190385759 208.60847013387859761
12.009497869018190385759 2097.92085856983703707 12.009497869018190385759 201.52557361281964177
13.009497869018190385759 2112.00877197647878347 13.009497869018190385759 196.01015337331637056
14.009497869018204596614 2124.62599338759491729 14.009497869018204596614 191.62965650314237109
15.009497869018190385759 2136.03871978092365680 15.009497869018190385759 188.08463317051197805
16.009497869018190385759 2146.44670840933167710 16.009497869018190385759 185.16544322292241986
17.009497869018190385759 2156.00356595937773818 17.009497869018190385759 182.77824172255117219
18.009497869018190385759 2164.82991481587987437 18.009497869018190385759 180.68818820161729377
19.009497869018204596614 2173.02190288845486066 19.009497869018204596614 178.95951018805993726
20.009497869018190385759 2180.65780670814274345 20.009497869018190385759 177.37395775621820349
21.009497869018204596614 2187.80229606956572752 21.009497869018204596614 175.97722917842736479
22.009497869018190385759 2194.50900213574641384 22.009497869018190385759 174.73370359741471702
23.009497869018190385759 2200.82331972910242257 23.009497869018190385759 173.63526151431099720
24.009497869018190385759 2206.78396984843629980 24.009497869018190385759 172.61749959249766562
25.009497869018190385759 2212.42400424961761018 25.009497869018190385759 171.68728201616110596
26.009497869018204596614 2217.77232527417845631 26.009497869018204596614 170.84982267732942773
27.009497869018190385759 2222.85381757129653124 27.009497869018190385759 170.05197314936557973
28.009497869018190385759 2227.69059253094746964 28.009497869018190385759 169.30793057916221755
29.009497869018190385759 2232.30191064724294847 29.009497869018190385759 168.61560773209708941
30.009497869018190385759 2236.70506124893108790 30.009497869018190385759 167.95655974226733065
31.009497869018190385759 2240.91530584198835641 31.009497869018190385759 167.33273958389773384
32.009497869018190385759 2244.94638551609932620 32.009497869018190385759 166.73903771792342354
33.009497869018190385759 2248.81063717819051817 33.009497869018190385759 166.17538994897856242
34.009497869018190385759 2252.51914134671460488 34.009497869018190385759 165.63064238932881267
35.009497869018190385759 2256.08202744043910570 35.009497869018190385759 165.10503458158231638
36.009497869018190385759 2259.50839193087176682 36.009497869018190385759 164.59880958119174466
37.009497869018190385759 2262.80657560879672019 37.009497869018190385759 164.10899996367558629
38.009497869018190385759 2265.98420551050821814 38.009497869018190385759 163.63378472310512279
39.009497869018190385759 2269.04822146097876612 39.009497869018190385759 163.16808710642609981
40.009497869018190385759 2272.00503466134387054 40.009497869018190385759 162.70852893310720333
41.009497869018190385759 2274.86054883384713321 41.009497869018190385759 162.27243519204466793
42.009497869018190385759 2277.62018324946802750 42.009497869018190385759 161.83605623538070972
43.009497869018190385759 2280.28896657543464244 43.009497869018190385759 161.41878368638734287
44.009497869018218807469 2282.87156371073069749 44.009497869018218807469 160.99850072078572794
46.009497869018190385759 2287.79515705760695710 46.009497869018190385759 160.18284917332852046
48.009497869018190385759 2292.42205988579144105 48.009497869018190385759 159.39800475731826168
50.009497869018190385759 2296.77933152434434305 50.009497869018190385759 158.62102690313977860
52.009497869018190385759 2300.89063677142621600 52.009497869018190385759 157.86605600247116854
54.009497869018190385759 2304.77686437451302481 54.009497869018190385759 157.13674223482829007
56.009497869018190385759 2308.45642713926463330 56.009497869018190385759 156.42206067620577414
58.009497869018218807469 2311.94578882350788263 58.009497869018218807469 155.68728809107525990
60.009497869018190385759 2315.25954434935692916 60.009497869018190385759 155.00037536318296816
62.009497869018190385759 2318.41088601292494786 62.009497869018190385759 154.32574131751664481
64.009497869018190385759 2321.41159685643970079 64.009497869018190385759 153.66269211461792565
66.009497869018190385759 2324.27235917659754705 66.009497869018190385759 152.99994071279905938
68.009497869018190385759 2327.00287358460582254 68.009497869018190385759 152.34194972105743204
70.009497869018190385759 2329.61183263124939913 70.009497869018190385759 151.71579982073600945
72.009497869018218807469 2332.10731834564876408 72.009497869018218807469 151.09066206393688958
74.009497869018190385759 2334.49660215435960708 74.009497869018190385759 150.48399019324131132
76.009497869018190385759 2336.78633705706624824 76.009497869018190385759 149.88998769264074440
78.009497869018190385759 2338.98272498096230265 78.009497869018190385759 149.30418525708566335
80.009497869018190385759 2341.09135837958456250 80.009497869018190385759 148.73482886658234747
82.009497869018218807469 2343.11740885631252240 82.009497869018218807469 148.18008760505486521
84.009497869018190385759 2345.06573035909195823 84.009497869018190385759 147.64422765910288149
86.009497869018190385759 2346.94070860564443137 86.009497869018190385759 147.11042895531394947
88.009497869018190385759 2348.74640760455167765 88.009497869018190385759 146.59817967538191397
91.009497869018218807469 2351.33345076129580775 91.009497869018218807469 145.84777743871390498
94.009497869018190385759 2353.78492580780402932 94.009497869018190385759 145.12696536167518957
97.009497869018190385759 2356.11136800199346908 97.009497869018190385759 144.43028314132962464
99.504748934509109403734 2357.95801934562769020 99.504748934509109403734 143.98340840312940259
nan nan nan nan

