Time Pressure difference Time.1 Pressure.1 difference.1
(hr) (psi) (hr) (psi)
0.000200000000006639311 0.33041138820353716 0.000200000000006639311 0.26339214349938406
0.000399999999999067768 0.66063564413572462 0.000399999999999067768 0.68943639865245954
0.000600000000005707079 0.99070130600942308 0.000600000000005707079 1.00871358546554513
0.000799999999998135536 1.32062204346158651 0.000799999999998135536 1.33375206585896877
0.001007140329434719206 1.66217547934327947 0.001007140329434719206 1.67496546005716285
0.001267914553963578328 2.09196410052645598 0.001267914553963578328 2.10755709866586827
0.001596209851982166583 2.63272865072307782 0.001596209851982166583 2.65158131880225811
0.002009509145210586212 3.31304224521021062 0.002009509145210586212 3.33558606148314274
0.002529822128138903281 4.16879084288965451 0.002529822128138903281 4.19534884375701811
0.003184857364445292660 5.24502118804259165 0.003184857364445292660 5.27566199391437252
0.004009497869020606231 6.59824287502773554 0.004009497869020606231 6.63253374909963345
0.005047658755842121536 8.29928908465802806 0.005047658755842121536 8.33588814958435265
0.006354625877804664924 10.43686065989847478 0.006354625877804664924 10.47285505303705833
0.008000000000009777068 13.12189984961945122 0.008000000000009777068 13.15174537630230667
0.010071403294347192059 16.49296175603096870 0.010071403294347192059 16.50680127753413018
0.012679145539692626699 20.72277046042500714 0.012679145539692626699 20.70378911271575006
0.015962098519750611558 26.02615807184246677 0.015962098519750611558 25.94645331463186722
0.020095091452091651263 32.66958045457789694 0.020095091452091651263 32.48375479363014051
0.025298221281346400247 40.98237029969413214 0.025298221281346400247 40.61765313008411482
0.031848573644282396344 51.36980684092124250 0.031848573644282396344 50.71092264689807649
0.040094978690191851456 64.32792273318864318 0.040094978690191851456 63.19407124581164226
0.050476587558421215363 80.45969086733018116 0.050476587558421215363 78.56979810368821404
0.063546258777947173257 100.49178048755759107 0.063546258777947173257 97.41251355763890274
0.079999999999998294697 125.29036988160763144 0.079999999999998294697 120.35918547309709936
0.100714032943542974863 155.87346528522670042 0.100714032943542974863 148.08613067413000408
0.126791455396897845276 193.41571201609281161 0.126791455396897845276 181.26436863544742550
0.159620985197506115583 239.23972440518281246 0.159620985197506115583 220.48398628525006870
0.200950914520774404082 294.78550776900493702 0.200950914520774404082 266.13614722986574179
0.252982212813464002465 361.54677804948499897 0.252982212813464002465 318.24112813855595050
0.318485736442795541734 440.96047934484278130 0.318485736442795541734 376.21468018841102321
0.400949786901819038576 534.23495607790653139 0.400949786901819038576 438.57809507325373488
0.504765875584169521062 642.10595488611227211 0.504765875584169521062 502.64744056901253089
0.635462587779443310865 764.52291102594404038 0.635462587779443310865 564.29215249931996823
0.799999999999997157829 900.29712845593655857 0.799999999999997157829 617.92863883100858402
1.007140329435330272645 1046.79141917610036217 1.007140329435330272645 656.97471707902059279
1.267914553968893187630 1199.78675483975166571 1.267914553968893187630 674.95341772998358465
1.596209851975103788391 1353.69017268435595724 1.596209851975103788391 667.20459848565496941
2.009509145207687197399 1502.19524306025778060 2.009509145207687197399 632.74096262335956453
2.529822128134711078928 1639.33895485226366873 2.529822128134711078928 575.39099689918077729
3.184857364427983839050 1760.66687712287239265 3.184857364427983839050 503.39365434293512180
4.009497869018190385759 1864.06958739827950922 4.009497869018190385759 427.23050552551444525
5.009497869018190385759 1947.36595575380806622 5.009497869018190385759 358.46312053190200686
6.009497869018190385759 2004.68316647917868067 6.009497869018190385759 310.22645155294407004
7.009497869018204596614 2046.85888134592596543 7.009497869018204596614 276.66866882980917808
8.009497869018190385759 2079.57116029869348495 8.009497869018190385759 253.05023841835668463
9.009497869018204596614 2106.00327977432107218 9.009497869018204596614 236.49793143336879098
10.009497869018190385759 2128.04776637306667908 10.009497869018190385759 224.68915345257912008
11.009497869018190385759 2146.89108199377324127 11.009497869018190385759 215.11055231986958347
12.009497869018190385759 2163.31059961616938381 12.009497869018190385759 207.80689019295948583
13.009497869018190385759 2177.83761681730402415 13.009497869018190385759 202.11956075118592935
14.009497869018204596614 2190.84810227240313907 14.009497869018204596614 197.60252891362992500
15.009497869018190385759 2202.61655000786140590 15.009497869018190385759 193.94701134725522707
16.009497869018190385759 2213.34894347663566805 16.009497869018190385759 190.93683366103948629
17.009497869018190385759 2223.20367710616301338 17.009497869018190385759 188.47522588013717382
18.009497869018190385759 2232.30513294001139002 18.009497869018190385759 186.32002783387548561
19.009497869018204596614 2240.75245570575725651 19.009497869018204596614 184.53746894716832117
20.009497869018190385759 2248.62636172242264365 20.009497869018190385759 182.90249669926916454
21.009497869018204596614 2255.99353646653889882 21.009497869018204596614 181.46223372424850595
22.009497869018190385759 2262.90928272179598935 22.009497869018190385759 180.17994890434712829
23.009497869018190385759 2269.42041021416525837 23.009497869018190385759 179.04726966540638955
24.009497869018190385759 2275.56684683072489861 24.009497869018190385759 177.99778529408203553
25.009497869018190385759 2281.38267451194315072 25.009497869018190385759 177.03857392315831021
26.009497869018204596614 2286.89769645155502076 26.009497869018204596614 176.17501195558384097
27.009497869018190385759 2292.13757292416858036 27.009497869018190385759 175.35229439038474197
28.009497869018190385759 2297.12510450593845235 28.009497869018190385759 174.58506088292830327
29.009497869018190385759 2301.88015201806592813 29.009497869018190385759 173.87115914192870036
30.009497869018190385759 2306.42054367746868593 30.009497869018190385759 173.19156939657176508
31.009497869018190385759 2310.76201667342684232 31.009497869018190385759 172.54830549300623943
32.009497869018190385759 2314.91874038932883195 32.009497869018190385759 171.93609863380675051
33.009497869018190385759 2318.90343625906962188 33.009497869018190385759 171.35488262271294957
34.009497869018190385759 2322.72753016791102709 34.009497869018190385759 170.79315591834682664
35.009497869018190385759 2326.40146725676504502 35.009497869018190385759 170.25116552957970839
36.009497869018190385759 2329.93462752352206735 36.009497869018190385759 169.72916208761850498
37.009497869018190385759 2333.33561173166845037 37.009497869018190385759 169.22408567682913372
38.009497869018190385759 2336.61228464330315546 38.009497869018190385759 168.73405853265646215
39.009497869018190385759 2339.77180238963273951 39.009497869018190385759 168.25384566558744837
40.009497869018190385759 2342.82077600143793461 40.009497869018190385759 167.77996360115210450
41.009497869018190385759 2345.76529321308407816 41.009497869018190385759 167.33027732790060327
42.009497869018190385759 2348.61094220789300380 42.009497869018190385759 166.88029694921073087
43.009497869018190385759 2351.36290839077264536 43.009497869018190385759 166.45001850258643117
44.009497869018218807469 2354.02600206015586082 44.009497869018218807469 166.01663580818686228
46.009497869018190385759 2359.10305805680491176 46.009497869018190385759 165.17556135535434692
48.009497869018190385759 2363.87417603807580235 48.009497869018190385759 164.36625425624765739
50.009497869018190385759 2368.36725874068724806 50.009497869018190385759 163.56505891051037338
52.009497869018190385759 2372.60670856689921493 52.009497869018190385759 162.78655644930145741
54.009497869018190385759 2376.61406534203024421 54.009497869018190385759 162.03451082396580318
56.009497869018190385759 2380.40831577737117186 56.009497869018190385759 161.29755347650311137
58.009497869018218807469 2384.00643678683809412 58.009497869018218807469 160.53987888871913015
60.009497869018190385759 2387.42347819920678376 60.009497869018190385759 159.83155589398347729
62.009497869018190385759 2390.67304349904179617 62.009497869018190385759 159.13589429364702710
64.009497869018190385759 2393.76728299222486385 64.009497869018190385759 158.45217862208653514
66.009497869018190385759 2396.71721193015355311 66.009497869018190385759 157.76877003371745900
68.009497869018190385759 2399.53283328074894598 68.009497869018190385759 157.09027023184361838
70.009497869018190385759 2402.22311053144449033 70.009497869018190385759 156.44460397099274473
72.009497869018218807469 2404.79637761875983415 72.009497869018218807469 155.79998140099462489
74.009497869018190385759 2407.26013261111893371 74.009497869018190385759 155.17440027718652118
76.009497869018190385759 2409.62123587442874850 76.009497869018190385759 154.56188341293085386
78.009497869018190385759 2411.88608264270669679 78.009497869018190385759 153.95782220016369024
80.009497869018190385759 2414.06043967972755127 80.009497869018190385759 153.37071963644982020
82.009497869018218807469 2416.14963978170362680 82.009497869018218807469 152.79868773819941907
84.009497869018190385759 2418.15868818846593058 84.009497869018190385759 152.24612566406193537
86.009497869018190385759 2420.09210731543089423 86.009497869018190385759 151.69568907859647311
88.009497869018190385759 2421.95408784157689297 88.009497869018190385759 151.16747358734184559
91.009497869018218807469 2424.62176610969981994 91.009497869018218807469 150.39368219005046967
94.009497869018190385759 2427.14965076804764976 94.009497869018190385759 149.65040324307807396
97.009497869018190385759 2429.54860544621169538 97.009497869018190385759 148.93200625222820577
99.504748934509109403734 2431.45281475380306802 99.504748934509109403734 148.47120295075939111
nan nan nan nan

