Time Pressure difference Time.1 Pressure.1 difference.1
(hr) (psi) (hr) (psi)
0.000200000000006639311 0.49020732406015960 0.000200000000006639311 0.39077574942351945
0.000399999999999067768 0.98013701359179317 0.000399999999999067768 1.02286659648941725
0.000600000000005707079 1.46983140866385442 0.000600000000005707079 1.49655491647155170
0.000799999999998135536 1.95931078992159824 0.000799999999998135536 1.97879084833988039
0.001007140329434719206 2.46604875902567144 0.001007140329434719206 2.48502432235181070
0.001267914553963578328 3.10369484939567331 0.001267914553963578328 3.12682904562769881
0.001596209851982166583 3.90598784704255175 0.001596209851982166583 3.93395817827337568
0.002009509145210586212 4.91531960309524951 0.002009509145210586212 4.94876622220043139
0.002529822128138903281 6.18493150242318990 0.002529822128138903281 6.22433367499466961
0.003184857364445292660 7.78165612029492682 0.003184857364445292660 7.82711565343971216
0.004009497869020606231 9.78933262818976324 0.004009497869020606231 9.84020750181280590
0.005047658755842121536 12.31305106010976935 0.005047658755842121536 12.36735042847653609
0.006354625877804664924 15.48441039969824295 0.006354625877804664924 15.53781266055120192
0.008000000000009777068 19.46800758545555965 0.008000000000009777068 19.51228722076085020
0.010071403294347192059 24.46940673627767993 0.010071403294347192059 24.48993942687053504
0.012679145539692626699 30.74486599796052388 0.012679145539692626699 30.71670475412991763
0.015962098519750611558 38.61311613177635849 0.015962098519750611558 38.49486398568808454
0.020095091452091651263 48.46947830666594825 0.020095091452091651263 48.19378230087695414
0.025298221281346400247 60.80255946226660768 0.025298221281346400247 60.26145514765627809
0.031848573644282396344 76.21364289496878541 0.031848573644282396344 75.23610438041049520
0.040094978690191851456 95.43865614571311085 0.040094978690191851456 93.75644323371047051
0.050476587558421215363 119.37218619863344315 0.050476587558421215363 116.56828988179437090
0.063546258777947173257 149.09233931277438501 0.063546258777947173257 144.52385512707635939
0.079999999999998294697 185.88420115936247612 0.079999999999998294697 178.56816182280653038
0.100714032943542974863 231.25811348362347530 0.100714032943542974863 219.70461200771430299
0.126791455396897845276 286.95681203395128023 0.126791455396897845276 268.92874842891319531
0.159620985197506115583 354.94256341222336459 0.159620985197506115583 327.11604010582442470
0.200950914520774404082 437.35179867995941549 0.200950914520774404082 394.84682800602246289
0.252982212813464002465 536.40063544369434112 0.252982212813464002465 472.15119514763080133
0.318485736442795541734 654.22096305821764872 0.318485736442795541734 558.16233408305822650
0.400949786901819038576 792.60551418107547761 0.400949786901819038576 650.68639294243428139
0.504765875584169521062 952.64586253884169764 0.504765875584169521062 745.74141686435359588
0.635462587779443310865 1134.26698890247098461 0.635462587779443310865 837.19918846876453244
0.799999999999997157829 1335.70531148752274930 0.799999999999997157829 916.77573871905303804
1.007140329435330272645 1553.04822643507077373 1.007140329435330272645 974.70556261849662860
1.267914553968893187630 1780.03626851539979725 1.267914553968893187630 1001.37925199738128867
1.596209851975103788391 2008.37156602288587237 1.596209851975103788391 989.88289296738219036
2.009509145207687197399 2228.69772836899710455 2.009509145207687197399 938.75170525228895713
2.529822128134711078928 2432.16787004529760452 2.529822128134711078928 853.66573595369641225
3.184857364427983839050 2612.17327613443831069 3.184857364427983839050 746.84851991936727700
4.009497869018190385759 2765.58435006948775481 4.009497869018190385759 633.85080038923933898
5.009497869018190385759 2889.16510815867286510 5.009497869018190385759 531.82563726269597737
6.009497869018190385759 2974.20248124996578554 6.009497869018190385759 460.26040293371295320
7.009497869018204596614 3036.77551917569326179 7.009497869018204596614 410.47316357873449988
8.009497869018190385759 3085.30834613584556791 8.009497869018190385759 375.43221770380870339
9.009497869018204596614 3124.52375765006354413 9.009497869018204596614 350.87476477142121212
10.009497869018190385759 3157.22955766684162882 10.009497869018190385759 333.35494051276850769
11.009497869018190385759 3185.18601333585002067 11.009497869018190385759 319.14386729572589729
12.009497869018190385759 3209.54645635749102439 12.009497869018190385759 308.30795547519682032
13.009497869018190385759 3231.09913427050923929 13.009497869018190385759 299.87007879709955205
14.009497869018204596614 3250.40184442933377795 14.009497869018204596614 293.16848748143081593
15.009497869018190385759 3267.86183363886766529 15.009497869018190385759 287.74506217514692707
16.009497869018190385759 3283.78470455349679469 16.009497869018190385759 283.27908067091249222
17.009497869018190385759 3298.40545545473605671 17.009497869018190385759 279.62697240151328515
18.009497869018190385759 3311.90862292611245721 18.009497869018190385759 276.42946195000672560
19.009497869018204596614 3324.44130078259695438 19.009497869018204596614 273.78480909290215095
20.009497869018190385759 3336.12324195089922796 20.009497869018190385759 271.35911978808445610
21.009497869018204596614 3347.05338281811464185 21.009497869018204596614 269.22230645738625299
22.009497869018190385759 3357.31377209858374044 22.009497869018190385759 267.31987381526568015
23.009497869018190385759 3366.97385797517245010 23.009497869018190385759 265.63940008293292294
24.009497869018190385759 3376.09287854734793655 24.009497869018190385759 264.08235651943152789
25.009497869018190385759 3384.72139870915498250 25.009497869018190385759 262.65924443511397612
26.009497869018204596614 3392.90363528958732786 26.009497869018204596614 261.37804040765462332
27.009497869018190385759 3400.67765857011363551 27.009497869018190385759 260.15743424669176420
28.009497869018190385759 3408.07729610578735446 28.009497869018190385759 259.01914574318584528
29.009497869018190385759 3415.13201395123633120 29.009497869018190385759 257.95998169923427668
30.009497869018190385759 3421.86826253407843978 30.009497869018190385759 256.95172386544271603
31.009497869018190385759 3428.30938997644443589 31.009497869018190385759 255.99736003874230050
32.009497869018190385759 3434.47641836099410284 32.009497869018190385759 255.08907328794001046
33.009497869018190385759 3440.38822155312800533 33.009497869018190385759 254.22676540246331456
34.009497869018190385759 3446.06175130705150877 34.009497869018190385759 253.39337238263547647
35.009497869018190385759 3451.51250431797097917 35.009497869018190385759 252.58926069753763954
36.009497869018190385759 3456.75439700593096859 36.009497869018190385759 251.81480219044655655
37.009497869018190385759 3461.80018969761385961 37.009497869018190385759 251.06545708728555155
38.009497869018190385759 3466.66155076802397161 38.009497869018190385759 250.33843948547777813
39.009497869018190385759 3471.34909724809494946 39.009497869018190385759 249.62598261216874107
40.009497869018190385759 3475.87263744293932177 40.009497869018190385759 248.92291828987046642
41.009497869018190385759 3480.24120328087246889 41.009497869018190385759 248.25575150159559712
42.009497869018190385759 3484.46308554269262459 42.009497869018190385759 247.58814837049149560
43.009497869018190385759 3488.54597743618478489 43.009497869018190385759 246.94977556177175870
44.009497869018218807469 3492.49701565096211198 44.009497869018218807469 246.30679720660469911
46.009497869018190385759 3500.02947404397491482 46.009497869018190385759 245.05895626776754170
48.009497869018190385759 3507.10803447462649274 48.009497869018190385759 243.85824623911807407
50.009497869018190385759 3513.77409420217827574 50.009497869018190385759 242.66957102843983307
52.009497869018190385759 3520.06385729446719779 52.009497869018190385759 241.51456359858576661
54.009497869018190385759 3526.00928082230711880 54.009497869018190385759 240.39880825016587096
56.009497869018190385759 3531.63853398708261011 56.009497869018190385759 239.30543828126027961
58.009497869018218807469 3536.97680420012011382 58.009497869018218807469 238.18133165102159410
60.009497869018190385759 3542.04641979680855002 60.009497869018190385759 237.13044438679162340
62.009497869018190385759 3546.86756327691637125 62.009497869018190385759 236.09834191173322893
64.009497869018190385759 3551.45826116478701806 64.009497869018190385759 235.08396274158431538
66.009497869018190385759 3555.83485598705419761 66.009497869018190385759 234.07003916841208024
68.009497869018190385759 3560.01218841904619694 68.009497869018190385759 233.06339840442291234
70.009497869018190385759 3564.00355693456094741 70.009497869018190385759 232.10547037510005453
72.009497869018218807469 3567.82132598853786476 72.009497869018218807469 231.14909079391898672
74.009497869018190385759 3571.47661991926725022 74.009497869018190385759 230.22096162030945266
76.009497869018190385759 3574.97961695223875722 76.009497869018190385759 229.31221493757246321
78.009497869018190385759 3578.33980523061472923 78.009497869018190385759 228.41601328941160887
80.009497869018190385759 3581.56574048201355254 80.009497869018190385759 227.54497195432983858
82.009497869018218807469 3584.66533458796857303 82.009497869018218807469 226.69628986851250829
84.009497869018190385759 3587.64601345845494507 84.009497869018190385759 225.87649374340674058
86.009497869018190385759 3590.51448667201157150 86.009497869018190385759 225.05985105111668076
88.009497869018190385759 3593.27697163397670010 88.009497869018190385759 224.27617617870114941
91.009497869018218807469 3597.23481168416446963 91.009497869018218807469 223.12815821143504991
94.009497869018190385759 3600.98525013193921041 94.009497869018190385759 222.02540934552388308
97.009497869018190385759 3604.54440455369922347 97.009497869018190385759 220.95957602660556063
99.504748934509109403734 3607.36954128460911306 99.504748934509109403734 220.27591571283949179
nan nan nan nan

