Time Pressure difference Time.1 Pressure.1 difference.1
(hr) (psi) (hr) (psi)
0.000200000000006639311 0.31875960121399177 0.000200000000006639311 0.25410375556741588
0.000399999999999067768 0.63733866927955307 0.000399999999999067768 0.66512378006018147
0.000600000000005707079 0.95576473602420409 0.000600000000005707079 0.97314182174635711
0.000799999999998135536 1.27405098903221070 0.000799999999998135536 1.28671798796973547
0.001007140329434719206 1.60355971936643837 0.001007140329434719206 1.61589866801484461
0.001267914553963578328 2.01819206675474172 0.001267914553963578328 2.03323518586656782
0.001596209851982166583 2.53988683432478268 0.001596209851982166583 2.55807467279915590
0.002009509145210586212 3.19620952119776014 0.002009509145210586212 3.21795834143084081
0.002529822128138903281 4.02178058646533376 0.002529822128138903281 4.04740203314594016
0.003184857364445292660 5.06005822423252560 0.003184857364445292660 5.08961849790731691
0.004009497869020606231 6.36555924719300403 0.004009497869020606231 6.39864087129763082
0.005047658755842121536 8.00661894061467194 0.005047658755842121536 8.04192735841513340
0.006354625877804664924 10.06881015803807600 0.006354625877804664924 10.10353522748915189
0.008000000000009777068 12.65916282721473607 0.008000000000009777068 12.68795586681053855
0.010071403294347192059 15.91134597622130897 0.010071403294347192059 15.92469745414501681
0.012679145539692626699 19.99199266081304316 0.012679145539692626699 19.97368068052930568
0.015962098519750611558 25.10835904663895235 0.015962098519750611558 25.03146503653401567
0.020095091452091651263 31.51750456952981594 0.020095091452091651263 31.33823195456005450
0.025298221281346400247 39.53714817325654707 0.025298221281346400247 39.18529256630280599
0.031848573644282396344 49.55827712864693524 0.031848573644282396344 48.92262814549612671
0.040094978690191851456 62.05943175519205113 0.040094978690191851456 60.96556495502735373
0.050476587558421215363 77.62232141608932068 0.050476587558421215363 75.79907474486797980
0.063546258777947173257 96.94798973988552859 0.063546258777947173257 93.97731156820074716
0.079999999999998294697 120.87206968427133802 0.079999999999998294697 116.11478094759745261
0.100714032943542974863 150.37666802076026329 0.100714032943542974863 142.86394974355616228
0.126791455396897845276 186.59500680645726334 0.126791455396897845276 174.87217427550720572
0.159620985197506115583 230.80305906091942347 0.159620985197506115583 212.70873236083318147
0.200950914520774404082 284.39004905674784141 0.200950914520774404082 256.75099342327098384
0.252982212813464002465 348.79701761449058495 0.252982212813464002465 307.01851908581085127
0.318485736442795541734 425.41023574074256430 0.318485736442795541734 362.94766375859296659
0.400949786901819038576 515.39543621621714919 0.400949786901819038576 423.11186502029261192
0.504765875584169521062 619.46241995310072070 0.504765875584169521062 484.92183813081055632
0.635462587779443310865 737.56240534744711113 0.635462587779443310865 544.39268112654804099
0.799999999999997157829 868.54861510988325790 0.799999999999997157829 596.13770446417197491
1.007140329435330272645 1009.87686031346720483 1.007140329435330272645 633.80684292510056821
1.267914553968893187630 1157.47689446756885445 1.267914553968893187630 651.15153398131917584
1.596209851975103788391 1305.95298775342166664 1.596209851975103788391 643.67597284636235599
2.009509145207687197399 1449.22110350649541033 2.009509145207687197399 610.42767930666661869
2.529822128134711078928 1581.52851311943800283 2.529822128134711078928 555.10013050978898264
3.184857364427983839050 1698.57786886161261464 3.184857364427983839050 485.64173706132032748
4.009497869018190385759 1798.33413595350407377 4.009497869018190385759 412.16444235836786447
5.009497869018190385759 1878.69310089095347394 5.009497869018190385759 345.82210368694825320
6.009497869018190385759 1933.98904977714232700 6.009497869018190385759 299.28647593142966343
7.009497869018204596614 1974.67745983750523919 7.009497869018204596614 266.91209108770004832
8.009497869018190385759 2006.23615716473477733 8.009497869018190385759 244.12655242879242223
9.009497869018204596614 2031.73616159588141272 9.009497869018204596614 228.15795400246912550
10.009497869018190385759 2053.00326075789553215 10.009497869018190385759 216.76560647944032212
11.009497869018190385759 2071.18207658341361821 11.009497869018190385759 207.52478976954674295
12.009497869018190385759 2087.02256839544816103 12.009497869018190385759 200.47868751612963933
13.009497869018190385759 2101.03729783634116757 13.009497869018190385759 194.99191881033806339
14.009497869018204596614 2113.58897524012718350 14.009497869018204596614 190.63417776806113579
15.009497869018190385759 2124.94241474310047124 15.009497869018190385759 187.10757014105476514
16.009497869018190385759 2135.29633589811419370 16.009497869018190385759 184.20354481656957546
17.009497869018190385759 2144.80354743491307090 17.009497869018190385759 181.82874436295347209
18.009497869018190385759 2153.58404512852484913 18.009497869018190385759 179.74954826290758092
19.009497869018204596614 2161.73347741890438556 19.009497869018204596614 178.02985039487523977
20.009497869018190385759 2169.32971420576268429 20.009497869018190385759 176.45253459904304805
21.009497869018204596614 2176.43708933673678985 21.009497869018204596614 175.06306175412385073
22.009497869018190385759 2183.10895537140504530 22.009497869018190385759 173.82599604625931988
23.009497869018190385759 2189.39047131492543485 23.009497869018190385759 172.73326015579507953
24.009497869018190385759 2195.32015701805448771 24.009497869018190385759 171.72078530890030379
25.009497869018190385759 2200.93089253923017168 25.009497869018190385759 170.79540003166155770
26.009497869018204596614 2206.25143007794849837 26.009497869018204596614 169.96229113095367325
27.009497869018190385759 2211.30652501248459885 27.009497869018190385759 169.16858627586236707
28.009497869018190385759 2216.11817386844950306 28.009497869018190385759 168.42840886186786520
29.009497869018190385759 2220.70553708543911853 29.009497869018190385759 167.73968249712515899
30.009497869018190385759 2225.08581417750792752 30.009497869018190385759 167.08405813321658684
31.009497869018190385759 2229.27418737008201788 31.009497869018190385759 166.46347859904633992
32.009497869018190385759 2233.28432637056130261 32.009497869018190385759 165.87286089860955940
33.009497869018190385759 2237.12850399804437984 33.009497869018190385759 165.31214117002284070
34.009497869018190385759 2240.81774320984868609 34.009497869018190385759 164.77022346782578666
35.009497869018190385759 2244.36212080438508565 35.009497869018190385759 164.24734609024943666
36.009497869018190385759 2247.77068599876292865 36.009497869018190385759 163.74375083012060372
37.009497869018190385759 2251.05173625498491674 37.009497869018190385759 163.25648567815002821
38.009497869018190385759 2254.21285898837550121 38.009497869018190385759 162.78373908817991378
39.009497869018190385759 2257.26095797286961897 39.009497869018190385759 162.32046067989918470
40.009497869018190385759 2260.20241110466213286 40.009497869018190385759 161.86328982176638647
41.009497869018190385759 2263.04309143730779397 41.009497869018190385759 161.42946150273536432
42.009497869018190385759 2265.78839008973045566 42.009497869018190385759 160.99534944974234918
43.009497869018190385759 2268.44330960621164195 43.009497869018190385759 160.58024455035416622
44.009497869018218807469 2271.01249065249294290 44.009497869018218807469 160.16214487288556256
46.009497869018190385759 2275.91050689107396465 46.009497869018190385759 159.35073047632423027
48.009497869018190385759 2280.51337386041086575 48.009497869018190385759 158.56996317416334819
50.009497869018190385759 2284.84801032162022238 50.009497869018190385759 157.79702156857803175
52.009497869018190385759 2288.93795813884707968 52.009497869018190385759 157.04597259466615355
54.009497869018190385759 2292.80399754659356404 54.009497869018190385759 156.32044746997203788
56.009497869018190385759 2296.46444569957975546 56.009497869018190385759 155.60947854282289882
58.009497869018218807469 2299.93568082961974142 58.009497869018218807469 154.87852295813459591
60.009497869018190385759 2303.23222204104877164 60.009497869018190385759 154.19517860804955944
62.009497869018190385759 2306.36719309857198823 62.009497869018190385759 153.52404915482821934
64.009497869018190385759 2309.35231583380891607 64.009497869018190385759 152.86444436337316688
66.009497869018190385759 2312.19821705100503095 66.009497869018190385759 152.20513582597931190
68.009497869018190385759 2314.91454696858136231 68.009497869018190385759 151.55056296925971537
70.009497869018190385759 2317.50995298121688393 70.009497869018190385759 150.92766579569325813
72.009497869018218807469 2319.99247513346335836 72.009497869018218807469 150.30577550776055773
74.009497869018190385759 2322.36934707823320423 74.009497869018190385759 149.70225517925044301
76.009497869018190385759 2324.64718725417196765 76.009497869018190385759 149.11133840592574984
78.009497869018190385759 2326.83216537067164609 78.009497869018190385759 148.52857909990601115
80.009497869018190385759 2328.92984482956080683 80.009497869018190385759 147.96218040493772605
82.009497869018218807469 2330.94537036874680780 82.009497869018218807469 147.41032091619743483
84.009497869018190385759 2332.88357072086228072 84.009497869018190385759 146.87724465827636777
86.009497869018190385759 2334.74880882068009669 86.009497869018190385759 146.34621893476685273
88.009497869018190385759 2336.54512756504755089 88.009497869018190385759 145.83663069005524449
91.009497869018218807469 2339.11873153656188151 91.009497869018218807469 145.09012664682450122
94.009497869018190385759 2341.55747164776357749 94.009497869018190385759 144.37305904810807533
97.009497869018190385759 2343.87182842795755278 97.009497869018190385759 143.67999595617985165
99.504748934509109403734 2345.70888677759785423 99.504748934509109403734 143.23544264519105695
nan nan nan nan

