Time Pressure difference Time.1 Pressure.1 difference.1
(hr) (psi) (hr) (psi)
0.000200000000006639311 0.36120539667590712 0.000200000000006639311 0.28794002589101431
0.000399999999999067768 0.72220622054132122 0.000399999999999067768 0.75369117636062333
0.000600000000005707079 1.08303366954178726 0.000600000000005707079 1.10272467529482743
0.000799999999998135536 1.44370268731065132 0.000799999999998135536 1.45805641456622781
0.001007140329434719206 1.81708855928207358 0.001007140329434719206 1.83107055331186053
0.001267914553963578328 2.28693304692312749 0.001267914553963578328 2.30397929677830415
0.001596209851982166583 2.87809630834714270 0.001596209851982166583 2.89870602609617167
0.002009509145210586212 3.62181444438597344 0.002009509145210586212 3.64645932162137010
0.002529822128138903281 4.55731794915392907 0.002529822128138903281 4.58635112894344132
0.003184857364445292660 5.73385187811205199 0.003184857364445292660 5.76734837621873453
0.004009497869020606231 7.21319246287666793 0.004009497869020606231 7.25067921186206732
0.005047658755842121536 9.07277446534403964 0.005047658755842121536 9.11278452624586777
0.006354625877804664924 11.40956555767238889 0.006354625877804664924 11.44891459198509764
0.008000000000009777068 14.34484769454620334 0.008000000000009777068 14.37747479424483821
0.010071403294347192059 18.03008917409934497 0.010071403294347192059 18.04521852506250212
0.012679145539692626699 22.65411178797091196 0.012679145539692626699 22.63336139777994305
0.015962098519750611558 28.45176978130889367 0.015962098519750611558 28.36463662103332695
0.020095091452091651263 35.71435243649069946 0.020095091452091651263 35.51120801117249215
0.025298221281346400247 44.80188591956486732 0.025298221281346400247 44.40317747722041020
0.031848573644282396344 56.15742108050331893 0.031848573644282396344 55.43712954346035815
0.040094978690191851456 70.32322031789387040 0.040094978690191851456 69.08369501431297977
0.050476587558421215363 87.95845298846676030 0.050476587558421215363 85.89242412342743194
0.063546258777947173257 109.85751317783373793 0.063546258777947173257 106.49126167258258135
0.079999999999998294697 136.96730611742498240 0.079999999999998294697 131.57654029048902089
0.100714032943542974863 170.40071519845940884 0.100714032943542974863 161.88760884778949389
0.126791455396897845276 211.44186149870094482 0.126791455396897845276 198.15802515814655749
0.159620985197506115583 261.53662567216457546 0.159620985197506115583 241.03287165692324834
0.200950914520774404082 322.25922007997013452 0.200950914520774404082 290.93976800443761022
0.252982212813464002465 395.24257348482740326 0.252982212813464002465 347.90088063509637095
0.318485736442795541734 482.05755172710775014 0.318485736442795541734 411.27750932435867526
0.400949786901819038576 584.02511571237141652 0.400949786901819038576 479.45313164179373189
0.504765875584169521062 701.94958292335695660 0.504765875584169521062 549.49367558426047253
0.635462587779443310865 835.77567603339969082 0.635462587779443310865 616.88361255593167698
0.799999999999997157829 984.20391372764845528 0.799999999999997157829 675.51896537193374570
1.007140329435330272645 1144.35132474163106053 1.007140329435330272645 718.20409877152394529
1.267914553968893187630 1311.60567153766305637 1.267914553968893187630 737.85839620859667320
1.596209851975103788391 1479.85273285896869311 1.596209851975103788391 729.38739481807101583
2.009509145207687197399 1642.19832616662938563 2.009509145207687197399 691.71178281747620531
2.529822128134711078928 1792.12369371758768466 2.529822128134711078928 629.01685807114472482
3.184857364427983839050 1924.75925609905948477 3.184857364427983839050 550.30943573006004499
4.009497869018190385759 2037.79899478804372848 4.009497869018190385759 467.04795818154480003
5.009497869018190385759 2128.85850074849531666 5.009497869018190385759 391.87152219356545402
6.009497869018190385759 2191.51761776313242081 6.009497869018190385759 339.13924426694637759
7.009497869018204596614 2237.62406676103728387 7.009497869018204596614 302.45391000538330672
8.009497869018190385759 2273.38509715272857648 8.009497869018190385759 276.63426567649059962
9.009497869018204596614 2302.28066353162557789 9.009497869018204596614 258.53930035788926034
10.009497869018190385759 2326.37967407030464528 10.009497869018190385759 245.62995616730310644
11.009497869018190385759 2346.97916772115286221 11.009497869018190385759 235.15863906000856787
12.009497869018190385759 2364.92896784236199892 12.009497869018190385759 227.17428298172393397
13.009497869018190385759 2380.80988840984855415 13.009497869018190385759 220.95690016628390140
14.009497869018204596614 2395.03293800056189866 14.009497869018204596614 216.01888551263323279
15.009497869018190385759 2407.89819320758670074 15.009497869018190385759 212.02267739221352372
16.009497869018190385759 2419.63083493415570047 16.009497869018190385759 208.73195417856709355
17.009497869018190385759 2430.40401980875276422 17.009497869018190385759 206.04092703269401454
18.009497869018190385759 2440.35372215608276747 18.009497869018190385759 203.68486670000496019
19.009497869018204596614 2449.58832689243990899 19.009497869018204596614 201.73617512108577898
20.009497869018190385759 2458.19607301645191910 20.009497869018190385759 199.94882510700961120
21.009497869018204596614 2466.24986102387401843 21.009497869018204596614 198.37433107386357278
22.009497869018190385759 2473.81014786211426326 22.009497869018190385759 196.97253860072206066
23.009497869018190385759 2480.92810587644316911 23.009497869018190385759 195.73429479795055386
24.009497869018190385759 2487.64738419278228321 24.009497869018190385759 194.58699954063376936
25.009497869018190385759 2494.00524115411462844 25.009497869018190385759 193.53839063639978235
26.009497869018204596614 2500.03425758180128469 26.009497869018204596614 192.59434556353497214
27.009497869018190385759 2505.76248526218887491 27.009497869018190385759 191.69495155019390609
28.009497869018190385759 2511.21484976215924689 28.009497869018190385759 190.85621265287377923
29.009497869018190385759 2516.41306291143700946 29.009497869018190385759 190.07577598890947002
30.009497869018190385759 2521.37661449879442443 30.009497869018190385759 189.33284916401041187
31.009497869018190385759 2526.12270840369592406 31.009497869018190385759 188.62963371275745317
32.009497869018190385759 2530.66683458178522415 32.009497869018190385759 187.96036979111369192
33.009497869018190385759 2535.02290009177886532 33.009497869018190385759 187.32498503339402873
34.009497869018190385759 2539.20339569993302575 34.009497869018190385759 186.71090596615246682
35.009497869018190385759 2543.21974002376782664 35.009497869018190385759 186.11840261923825324
36.009497869018190385759 2547.08218726752784278 36.009497869018190385759 185.54774898243431380
37.009497869018190385759 2550.80013977718908791 37.009497869018190385759 184.99559995905249821
38.009497869018190385759 2554.38219530275500802 38.009497869018190385759 184.45990277877308472
39.009497869018190385759 2557.83617691964855112 39.009497869018190385759 183.93493455633486633
40.009497869018190385759 2561.16931180006076829 40.009497869018190385759 183.41688716095720224
41.009497869018190385759 2564.38825504906390051 41.009497869018190385759 182.92529058012308951
42.009497869018190385759 2567.49911566303626387 42.009497869018190385759 182.43337248352005986
43.009497869018190385759 2570.50756232139883650 43.009497869018190385759 181.96299251920027018
44.009497869018218807469 2573.41885363755045546 44.009497869018218807469 181.48921899434029115
46.009497869018190385759 2578.96908613766572671 46.009497869018190385759 180.56975724993395716
48.009497869018190385759 2584.18486750761940129 48.009497869018190385759 179.68502354461330128
50.009497869018190385759 2589.09670099107916030 50.009497869018190385759 178.80915759990304537
52.009497869018190385759 2593.73126326960755250 52.009497869018190385759 177.95809949369478886
54.009497869018190385759 2598.11210165854208753 54.009497869018190385759 177.13596397380641179
56.009497869018190385759 2602.25997241153436335 56.009497869018190385759 176.33032294408650387
58.009497869018218807469 2606.19343467377302659 58.009497869018218807469 175.50203384812118657
60.009497869018190385759 2609.92894090291156317 60.009497869018190385759 174.72769586395173746
62.009497869018190385759 2613.48136241456995776 62.009497869018190385759 173.96719930338238669
64.009497869018190385759 2616.86398191089529064 64.009497869018190385759 173.21976202011475721
66.009497869018190385759 2620.08884125361919359 66.009497869018190385759 172.47266043988258843
68.009497869018190385759 2623.16687567719145591 68.009497869018190385759 171.73092514010110676
70.009497869018190385759 2626.10788405704488468 70.009497869018190385759 171.02508343428425519
72.009497869018218807469 2628.92097704418574722 72.009497869018218807469 170.32038269025611044
74.009497869018190385759 2631.61435151946034239 74.009497869018190385759 169.63649803601748545
76.009497869018190385759 2634.19550722796520859 76.009497869018190385759 168.96689521715867954
78.009497869018190385759 2636.67143543308475273 78.009497869018190385759 168.30653610798748332
80.009497869018190385759 2639.04844035516816803 80.009497869018190385759 167.66471617687460594
82.009497869018218807469 2641.33235180166093414 82.009497869018218807469 167.03937148206185270
84.009497869018190385759 2643.52864149570314112 84.009497869018190385759 166.43531117935233965
86.009497869018190385759 2645.64225333727199541 86.009497869018190385759 165.83357445871754976
88.009497869018190385759 2647.67776857240414756 88.009497869018190385759 165.25612981588506045
91.009497869018218807469 2650.59407176727927435 91.009497869018218807469 164.41022184000476614
94.009497869018190385759 2653.35755272879714539 94.009497869018190385759 163.59767004407024160
97.009497869018190385759 2655.98008756588387769 97.009497869018190385759 162.81231917749886406
99.504748934509109403734 2658.06176726234389207 99.504748934509109403734 162.30856947261858636
nan nan nan nan

