Time Pressure difference Time.1 Pressure.1 difference.1
(hr) (psi) (hr) (psi)
0.000200000000006639311 0.67996499788989884 0.000200000000006639311 0.54204378145843024
0.000399999999999067768 1.35954488982087440 0.000399999999999067768 1.41881495642080457
0.000600000000005707079 2.03879840556599179 0.000600000000005707079 2.07586649704118464
0.000799999999998135536 2.71775367634286225 0.000799999999998135536 2.74477440253596328
0.001007140329434719206 3.42064827864851173 0.001007140329434719206 3.44696922132670514
0.001267914553963578328 4.30512511367787010 0.001267914553963578328 4.33721448264487286
0.001596209851982166583 5.41798314267192538 0.001596209851982166583 5.45678069889532757
0.002009509145210586212 6.81802396558373314 0.002009509145210586212 6.86441766305221091
0.002529822128138903281 8.57909853561926283 0.002529822128138903281 8.63375316208938060
0.003184857364445292660 10.79391010234457760 0.003184857364445292660 10.85696687412605321
0.004009497869020606231 13.57875171006967285 0.004009497869020606231 13.64932008315969902
0.005047658755842121536 17.07939340595871158 0.005047658755842121536 17.15471188466100116
0.006354625877804664924 21.47837571571046311 0.006354625877804664924 21.55244981947424776
0.008000000000009777068 27.00401052176093941 0.008000000000009777068 27.06543066105538031
0.010071403294347192059 33.94143515032065750 0.010071403294347192059 33.96991597920751360
0.012679145539692626699 42.64610444878395157 0.012679145539692626699 42.60704207830924872
0.015962098519750611558 53.56012882794784957 0.015962098519750611558 53.39610165756734261
0.020095091452091651263 67.23185700602051895 0.020095091452091651263 66.84943996573254310
0.025298221281346400247 84.33903409282142150 0.025298221281346400247 83.58847004352321619
0.031848573644282396344 105.71569820915026128 0.031848573644282396344 104.35975768895649196
0.040094978690191851456 132.38265207308592153 0.040094978690191851456 130.04925996934031218
0.050476587558421215363 165.58077440455608098 0.050476587558421215363 161.69149886829541174
0.063546258777947173257 206.80550291771928073 0.063546258777947173257 200.46857324078334273
0.079999999999998294697 257.83937580169634884 0.079999999999998294697 247.69132123808645929
0.100714032943542974863 320.77738321921964371 0.100714032943542974863 304.75155859134565617
0.126791455396897845276 398.03686830515817974 0.126791455396897845276 373.03019943365376321
0.159620985197506115583 492.33968473308402736 0.159620985197506115583 453.74160401775640139
0.200950914520774404082 606.64926913671786224 0.200950914520774404082 547.69076142770859406
0.252982212813464002465 744.03959109931793137 0.252982212813464002465 654.91939972090722222
0.318485736442795541734 907.46778746785025760 0.318485736442795541734 774.22517308295175553
0.400949786901819038576 1099.42055192858856572 0.400949786901819038576 902.56499666208628696
0.504765875584169521062 1321.41200287645779099 0.504765875584169521062 1034.41551371507102886
0.635462587779443310865 1573.33808138084691564 0.635462587779443310865 1161.27629368247971797
0.799999999999997157829 1852.75252883753182687 0.799999999999997157829 1271.65666983610594798
1.007140329435330272645 2154.22818505509849274 1.007140329435330272645 1352.01094169662451350
1.267914553968893187630 2469.08256600523191082 1.267914553968893187630 1389.00993018991584904
1.596209851975103788391 2785.80572061239035975 1.596209851975103788391 1373.06336766443337183
2.009509145207687197399 3091.41942967312479595 2.009509145207687197399 1302.13946212414271031
2.529822128134711078928 3373.65220683702591487 2.529822128134711078928 1184.11698858093382114
3.184857364427983839050 3623.33712496067209941 3.184857364427983839050 1035.95117279138048616
4.009497869018190385759 3836.13313074154757487 4.009497869018190385759 879.21240053991266450
5.009497869018190385759 4007.55160163944947271 5.009497869018190385759 737.69362588051376406
6.009497869018190385759 4125.50666754027497518 6.009497869018190385759 638.42572019837609787
7.009497869018204596614 4212.30152659854229569 7.009497869018204596614 569.36600109308335504
8.009497869018190385759 4279.62125431746335380 8.009497869018190385759 520.76081810528307869
9.009497869018204596614 4334.01682512750721799 9.009497869018204596614 486.69725436035844268
10.009497869018190385759 4379.38293482819972269 10.009497869018190385759 462.39556264674342856
11.009497869018190385759 4418.16124430456602568 11.009497869018190385759 442.68342882955528239
12.009497869018190385759 4451.95153623780970520 12.009497869018190385759 427.65297049785357331
13.009497869018190385759 4481.84718624619017646 13.009497869018190385759 415.94881897662196479
14.009497869018204596614 4508.62191324068862741 14.009497869018204596614 406.65306328069436859
15.009497869018190385759 4532.84060795068762673 15.009497869018190385759 399.13024753326828886
16.009497869018190385759 4554.92717083226943942 16.009497869018190385759 392.93549899513669743
17.009497869018190385759 4575.20756724366583512 17.009497869018190385759 387.86967139564751506
18.009497869018190385759 4593.93776728460761660 18.009497869018190385759 383.43441496291251269
19.009497869018204596614 4611.32180431134474929 19.009497869018204596614 379.76602551596101875
20.009497869018190385759 4627.52578722221460339 20.009497869018190385759 376.40135970605268767
21.009497869018204596614 4642.68695036061126302 21.009497869018204596614 373.43739282798742352
22.009497869018190385759 4656.91910323351839907 22.009497869018190385759 370.79853464698135213
23.009497869018190385759 4670.31857719136860396 23.009497869018190385759 368.46755495374566181
24.009497869018190385759 4682.96754121083722566 24.009497869018190385759 366.30778484953407315
25.009497869018190385759 4694.93613369334434537 25.009497869018190385759 364.33379066806134006
26.009497869018204596614 4706.28568765974978305 26.009497869018204596614 362.55663669448870223
27.009497869018190385759 4717.06901027467392851 27.009497869018190385759 360.86353782605630158
28.009497869018190385759 4727.33302363060829521 28.009497869018190385759 359.28462151474167285
29.009497869018190385759 4737.11859999687658274 29.009497869018190385759 357.81545848603462900
30.009497869018190385759 4746.46242867630280671 30.009497869018190385759 356.41690729722699871
31.009497869018190385759 4755.39689577377794194 31.009497869018190385759 355.09311231180379309
32.009497869018190385759 4763.95116095234607201 32.009497869018190385759 353.83323068972322289
33.009497869018190385759 4772.15140408982279041 33.009497869018190385759 352.63712620341686943
34.009497869018190385759 4780.02113890978125710 34.009497869018190385759 351.48112943397825347
35.009497869018190385759 4787.58186082815336704 35.009497869018190385759 350.36574870948771832
36.009497869018190385759 4794.85287326629077143 36.009497869018190385759 349.29149981255488910
37.009497869018190385759 4801.85187603217400465 37.009497869018190385759 348.25208563720252641
38.009497869018190385759 4808.59505429113050923 38.009497869018190385759 347.24364186695299850
39.009497869018190385759 4815.09713489251862484 39.009497869018190385759 346.25539523623410787
40.009497869018190385759 4821.37172290472244640 40.009497869018190385759 345.28017698272356029
41.009497869018190385759 4827.43134648637169448 41.009497869018190385759 344.35475208285839699
42.009497869018190385759 4833.28750575276717427 42.009497869018190385759 343.42872193326240904
43.009497869018190385759 4838.95087192761093320 43.009497869018190385759 342.54323706955443640
44.009497869018218807469 4844.43134429004385311 44.009497869018218807469 341.65136386722582529
46.009497869018190385759 4854.87959302873969136 46.009497869018190385759 339.92048772625821584
48.009497869018190385759 4864.69824136802981229 48.009497869018190385759 338.25498671877670631
50.009497869018190385759 4873.94471131269892794 50.009497869018190385759 336.60617916848104869
52.009497869018190385759 4882.66922140845508693 52.009497869018190385759 335.00407208836094242
54.009497869018190385759 4890.91609920513565157 54.009497869018190385759 333.45641144377844967
56.009497869018190385759 4898.72441811111457355 56.009497869018190385759 331.93980148690940268
58.009497869018218807469 4906.12911550339231326 58.009497869018218807469 330.38055680625581090
60.009497869018190385759 4913.16116294396033481 60.009497869018190385759 328.92287447200129691
62.009497869018190385759 4919.84855551314194599 62.009497869018190385759 327.49124845821063445
64.009497869018190385759 4926.21629774470420671 64.009497869018190385759 326.08420638348792409
66.009497869018190385759 4932.28705830462331505 66.009497869018190385759 324.67779626586190034
68.009497869018190385759 4938.08142264577327296 68.009497869018190385759 323.28148810936079371
70.009497869018190385759 4943.61783703826222336 70.009497869018190385759 321.95274922997748490
72.009497869018218807469 4948.91345217764956033 72.009497869018218807469 320.62615819801669659
74.009497869018190385759 4953.98369859769354662 74.009497869018190385759 319.33875321526795688
76.009497869018190385759 4958.84269448213763098 76.009497869018190385759 318.07823362308442938
78.009497869018190385759 4963.50360080375594407 78.009497869018190385759 316.83511520789352289
80.009497869018190385759 4967.97828518472852011 80.009497869018190385759 315.62689658181238883
82.009497869018218807469 4972.27772217040819669 82.009497869018218807469 314.44969239825928753
84.009497869018190385759 4976.41221221656633134 84.009497869018190385759 313.31255583762867900
86.009497869018190385759 4980.39106215795163735 86.009497869018190385759 312.17979339348443091
88.009497869018190385759 4984.22289613745124370 88.009497869018190385759 311.09276050594030494
91.009497869018218807469 4989.71280330384070112 91.009497869018218807469 309.50034848682923894
94.009497869018190385759 4994.91502437656163238 94.009497869018190385759 307.97072909217826009
97.009497869018190385759 4999.85191599384052097 97.009497869018190385759 306.49231513367868729
99.504748934509109403734 5003.77065403994220105 99.504748934509109403734 305.54401211780964331
nan nan nan nan

