Time Pressure difference Time.1 Pressure.1 difference.1
(hr) (psi) (hr) (psi)
0.000200000000006639311 0.80147649078087224 0.000200000000006639311 0.63890839846324143
0.000399999999999067768 1.60249905617809296 0.000399999999999067768 1.67236083602599139
0.000600000000005707079 2.40313692112613175 0.000600000000005707079 2.44682917582700199
0.000799999999998135536 3.20342324396349598 0.000799999999998135536 3.23527264338082343
0.001007140329434719206 4.03192691840699702 0.001007140329434719206 4.06295148119659366
0.001267914553963578328 5.07446203729717116 0.001267914553963578328 5.11228585898043075
0.001596209851982166583 6.38619065653985896 0.001596209851982166583 6.43192143578482245
0.002009509145210586212 8.03642237314214825 0.002009509145210586212 8.09110674359764914
0.002529822128138903281 10.11220549547288883 0.002529822128138903281 10.17662704417634423
0.003184857364445292660 12.72280958207812418 0.003184857364445292660 12.79713476105677827
0.004009497869020606231 16.00530954320329968 0.004009497869020606231 16.08848866595200633
0.005047658755842121536 20.13152490812514017 0.005047658755842121536 20.22030299256859820
0.006354625877804664924 25.31661666368320240 0.006354625877804664924 25.40392800018813091
0.008000000000009777068 31.82969661255298277 0.008000000000009777068 31.90209268861239522
0.010071403294347192059 40.00685685404992853 0.010071403294347192059 40.04042728026541198
0.012679145539692626699 50.26707293045159020 0.012679145539692626699 50.22103001396793331
0.015962098519750611558 63.13146151935590922 0.015962098519750611558 62.93812227201633647
0.020095091452091651263 79.24636266437913434 0.020095091452091651263 78.79560671603482547
0.025298221281346400247 99.41063626852758262 0.025298221281346400247 98.52594449438539925
0.031848573644282396344 124.60736520858225163 0.031848573644282396344 123.00911463214821140
0.040094978690191851456 156.03977227219306201 0.040094978690191851456 153.28939700180507089
0.050476587558421215363 195.17048439606793409 0.050476587558421215363 190.58618532456364392
0.063546258777947173257 243.76217785772789171 0.063546258777947173257 236.29282255920972489
0.079999999999998294697 303.91593500248905002 0.079999999999998294697 291.95439700401135497
0.100714032943542974863 378.10112612008390442 0.100714032943542974863 359.21144543875868749
0.126791455396897845276 469.16707977707147847 0.126791455396897845276 439.69165490160173704
0.159620985197506115583 580.32205189468777462 0.159620985197506115583 534.82639494381817258
0.200950914520774404082 715.05905285025619378 0.200950914520774404082 645.56450826791115105
0.252982212813464002465 877.00137849283134983 0.252982212813464002465 771.95517984239131692
0.318485736442795541734 1069.63461362489579187 0.318485736442795541734 912.58120156533959744
0.400949786901819038576 1295.88983048620661975 0.400949786901819038576 1063.85568150010908539
0.504765875584169521062 1557.55172432072072297 0.504765875584169521062 1219.26822485631987547
0.635462587779443310865 1854.49764059945596273 0.635462587779443310865 1368.79935228424460547
0.799999999999997157829 2183.84416801780071182 0.799999999999997157829 1498.90498537597295581
1.007140329435330272645 2539.19429890827359486 1.007140329435330272645 1593.61877215893423454
1.267914553968893187630 2910.31396702942265620 1.267914553968893187630 1637.22957499741619358
1.596209851975103788391 3283.63636346356406648 1.596209851975103788391 1618.43332075991361307
2.009509145207687197399 3643.86402787664519565 2.009509145207687197399 1534.83513099822471304
2.529822128134711078928 3976.53252776506269583 2.529822128134711078928 1395.72173807030503667
3.184857364427983839050 4270.83678254238293448 3.184857364427983839050 1221.07831015679221309
4.009497869018190385759 4521.65998152277916233 4.009497869018190385759 1036.32991642587035130
5.009497869018190385759 4723.71137378064759105 5.009497869018190385759 869.52137297788829073
6.009497869018190385759 4862.74531314722753450 6.009497869018190385759 752.51403739416912231
7.009497869018204596614 4965.05063661492840765 7.009497869018204596614 671.11316897507856538
8.009497869018190385759 5044.40057271446403320 8.009497869018190385759 613.82211485359562175
9.009497869018204596614 5108.51677184551954269 9.009497869018204596614 573.67130471116911394
10.009497869018190385759 5161.98992195784194337 10.009497869018190385759 545.02683822376252465
11.009497869018190385759 5207.69801501260371879 11.009497869018190385759 521.79209542577939374
12.009497869018190385759 5247.52671896818901587 12.009497869018190385759 504.07565555622159081
13.009497869018190385759 5282.76479847623159003 13.009497869018190385759 490.27994207403543214
14.009497869018204596614 5314.32423800585456775 14.009497869018204596614 479.32301094162625077
15.009497869018190385759 5342.87087571176471101 15.009497869018190385759 470.45584868364426256
16.009497869018190385759 5368.90436415113344992 16.009497869018190385759 463.15408265889431050
17.009497869018190385759 5392.80891952955971647 17.009497869018190385759 457.18297864627726312
18.009497869018190385759 5414.88625446153946541 18.009497869018190385759 451.95513048872066975
19.009497869018204596614 5435.37686358852442936 19.009497869018204596614 447.63119041844612411
20.009497869018190385759 5454.47653989595255553 20.009497869018190385759 443.66525017983934731
21.009497869018204596614 5472.34704185712143953 21.009497869018204596614 440.17161480214429048
22.009497869018190385759 5489.12251703045149043 22.009497869018190385759 437.06118588132562763
23.009497869018190385759 5504.91651142630053073 23.009497869018190385759 434.31365412540645821
24.009497869018190385759 5519.82587782868540671 24.009497869018190385759 431.76792755214358976
25.009497869018190385759 5533.93328855164145352 25.009497869018190385759 429.44117553652762354
26.009497869018204596614 5547.31103698450351658 26.009497869018204596614 427.34643957991744401
27.009497869018190385759 5560.02136706794499332 27.009497869018190385759 425.35077959178977380
28.009497869018190385759 5572.11958599299396155 28.009497869018190385759 423.48970687722913908
29.009497869018190385759 5583.65387000855844235 29.009497869018190385759 421.75800063898572034
30.009497869018190385759 5594.66746489018260036 30.009497869018190385759 420.10952475793095573
31.009497869018190385759 5605.19854422294793039 31.009497869018190385759 418.54916420595725413
32.009497869018190385759 5615.28147857663407194 32.009497869018190385759 417.06413849963701068
33.009497869018190385759 5624.94712624051317107 33.009497869018190385759 415.65428706718529384
34.009497869018190385759 5634.22320290100287821 34.009497869018190385759 414.29171070369773133
35.009497869018190385759 5643.13504526011183771 35.009497869018190385759 412.97700857678904640
36.009497869018190385759 5651.70540631020594446 36.009497869018190385759 411.71078864074712556
37.009497869018190385759 5659.95514886044475134 37.009497869018190385759 410.48562848057036945
38.009497869018190385759 5667.90335040680292877 38.009497869018190385759 409.29697321649416608
39.009497869018190385759 5675.56736952447408839 39.009497869018190385759 408.13212437269697830
40.009497869018190385759 5682.96324254253067920 40.009497869018190385759 406.98263211060316280
41.009497869018190385759 5690.10573643375300890 41.009497869018190385759 405.89183140243898151
42.009497869018190385759 5697.00840641360446170 42.009497869018190385759 404.80031728486136444
43.009497869018190385759 5703.68383068089224253 43.009497869018190385759 403.75659399997664423
44.009497869018218807469 5710.14367754138584132 44.009497869018218807469 402.70534076393937539
46.009497869018190385759 5722.45905518565086822 46.009497869018190385759 400.66515260757239503
48.009497869018190385759 5734.03232122082408750 48.009497869018190385759 398.70202228908436837
50.009497869018190385759 5744.93115911154200148 50.009497869018190385759 396.75856859148990452
52.009497869018190385759 5755.21476158670975565 52.009497869018190385759 394.87016085812922483
54.009497869018190385759 5764.93537764326265460 54.009497869018190385759 393.04592927828480242
56.009497869018190385759 5774.13906320808200689 56.009497869018190385759 391.25829722386021103
58.009497869018218807469 5782.86699905724253767 58.009497869018218807469 389.42041151092325890
60.009497869018190385759 5791.15569145046993071 60.009497869018190385759 387.70223759674081521
62.009497869018190385759 5799.03813826090026851 62.009497869018190385759 386.01477633446370419
64.009497869018190385759 5806.54381239675694815 64.009497869018190385759 384.35629222435602514
66.009497869018190385759 5813.69943347289245139 66.009497869018190385759 382.69855300370261375
68.009497869018190385759 5820.52926561551976192 68.009497869018190385759 381.05272099059294533
70.009497869018190385759 5827.05505149063174031 70.009497869018190385759 379.48653305810080383
72.009497869018218807469 5833.29700666716780688 72.009497869018218807469 377.92287679888625007
74.009497869018190385759 5839.27331915493141423 74.009497869018190385759 376.40540923660103090
76.009497869018190385759 5845.00063009338828124 76.009497869018190385759 374.91963155328062385
78.009497869018190385759 5850.49445235497751128 78.009497869018190385759 373.45436468200909985
80.009497869018190385759 5855.76877433646768623 80.009497869018190385759 372.03023428186696719
82.009497869018218807469 5860.83653176267216622 82.009497869018218807469 370.64266068485153482
84.009497869018190385759 5865.70986580728640547 84.009497869018190385759 369.30231489796381084
86.009497869018190385759 5870.39974646035170736 86.009497869018190385759 367.96712489342166919
88.009497869018190385759 5874.91633902125522582 88.009497869018190385759 366.68583643478643808
91.009497869018218807469 5881.38730670942368306 91.009497869018218807469 364.80885629475710630
94.009497869018190385759 5887.51917805952052731 94.009497869018190385759 363.00588998257978801
97.009497869018190385759 5893.33830489849333389 97.009497869018190385759 361.26327964961149064
99.504748934509109403734 5897.95733150607611606 99.504748934509109403734 360.14551244730807866
nan nan nan nan

