Time Pressure difference Time.1 Pressure.1 difference.1
(hr) (psi) (hr) (psi)
0.000200000000006639311 0.68579089138467153 0.000200000000006639311 0.54668797542441427
0.000399999999999067768 1.37119337724896018 0.000399999999999067768 1.43097126571694377
0.000600000000005707079 2.05626669055860134 0.000600000000005707079 2.09365237890077882
0.000799999999998135536 2.74103920355754971 0.000799999999998135536 2.76829144148058015
0.001007140329434719206 3.44995615863693228 0.001007140329434719206 3.47650261734786392
0.001267914553963578328 4.34201113056372723 0.001267914553963578328 4.37437543904452220
0.001596209851982166583 5.46440405087107361 0.001596209851982166583 5.50353402189687912
0.002009509145210586212 6.87644032758995838 0.002009509145210586212 6.92323152307836232
0.002529822128138903281 8.65260366383142454 0.002529822128138903281 8.70772656739491957
0.003184857364445292660 10.88639158424961018 0.003184857364445292660 10.94998862212958102
0.004009497869020606231 13.69509352398703861 0.004009497869020606231 13.76626652206070034
0.005047658755842121536 17.22572847798038964 0.005047658755842121536 17.30169228024561079
0.006354625877804664924 21.66240096664066428 0.006354625877804664924 21.73710973224820009
0.008000000000009777068 27.23537903296329787 0.008000000000009777068 27.29732541580126082
0.010071403294347192059 34.23224304022548381 0.010071403294347192059 34.26096789090207295
0.012679145539692626699 43.01149334858993711 0.012679145539692626699 42.97209629440246914
0.015962098519750611558 54.01902834054960323 0.015962098519750611558 53.85359579661626839
0.020095091452091651263 67.80789494854455768 0.020095091452091651263 67.42220138526758433
0.025298221281346400247 85.06164515604021403 0.025298221281346400247 84.30465032541387416
0.031848573644282396344 106.62146306528740070 0.031848573644282396344 105.25390493965745975
0.040094978690191851456 133.51689756208421045 0.040094978690191851456 131.16351311473246710
0.050476587558421215363 166.99945913017648991 0.050476587558421215363 163.07686054770553596
0.063546258777947173257 208.57739829155531197 0.063546258777947173257 202.18617423550239209
0.079999999999998294697 260.04852590036443871 0.079999999999998294697 249.81352350083628266
0.100714032943542974863 323.52578185145284806 0.100714032943542974863 307.36264905663261970
0.126791455396897845276 401.44722090997601072 0.126791455396897845276 376.22629661362390152
0.159620985197506115583 496.55801740521565080 0.159620985197506115583 457.62923097996485922
0.200950914520774404082 611.84699849284652373 0.200950914520774404082 552.38333833100602988
0.252982212813464002465 750.41447131681525207 0.252982212813464002465 660.53070424727980026
0.318485736442795541734 915.24290926990033768 0.318485736442795541734 780.85868129786069858
0.400949786901819038576 1108.84031185943308628 0.400949786901819038576 910.29811168856690529
0.504765875584169521062 1332.73377034296368038 0.504765875584169521062 1043.27831493417215825
0.635462587779443310865 1586.81833422009526657 0.635462587779443310865 1171.22602936886573843
0.799999999999997157829 1868.62678551055842036 0.799999999999997157829 1282.55213701952402516
1.007140329435330272645 2172.68546448641473035 1.007140329435330272645 1363.59487877358446895
1.267914553968893187630 2490.23749619132331645 1.267914553968893187630 1400.91087206424799660
1.596209851975103788391 2809.67431307785727768 1.596209851975103788391 1384.82768048407956485
2.009509145207687197399 3117.90649945000632215 2.009509145207687197399 1313.29610378248912639
2.529822128134711078928 3402.55742770343886150 2.529822128134711078928 1194.26242177562971847
3.184857364427983839050 3654.38162909130187472 3.184857364427983839050 1044.82713143218779805
4.009497869018190385759 3869.00085646393517891 4.009497869018190385759 886.74543212348601173
5.009497869018190385759 4041.88802907087620042 5.009497869018190385759 744.01413430299055563
6.009497869018190385759 4160.85372589129292464 6.009497869018190385759 643.89570800913327275
7.009497869018204596614 4248.39223735275299987 7.009497869018204596614 574.24428996413780624
8.009497869018190385759 4316.28875588444225286 8.009497869018190385759 525.22266110006512463
9.009497869018204596614 4371.15038421672761615 9.009497869018204596614 490.86724307580823279
10.009497869018190385759 4416.90518763578620565 10.009497869018190385759 466.35733613331279912
11.009497869018190385759 4456.01574700974651932 11.009497869018190385759 446.47631010471673108
12.009497869018190385759 4490.09555184817054396 12.009497869018190385759 431.31707183626855340
13.009497869018190385759 4520.24734573667137738 13.009497869018190385759 419.51263994704589777
14.009497869018204596614 4547.25147675682728732 14.009497869018204596614 410.13723885347872056
15.009497869018190385759 4571.67767558306786668 15.009497869018190385759 402.54996813636853403
16.009497869018190385759 4593.95347462152949447 16.009497869018190385759 396.30214341737166706
17.009497869018190385759 4614.40763207929103373 17.009497869018190385759 391.19291215423930907
18.009497869018190385759 4633.29831119035134179 18.009497869018190385759 386.71965474839652188
19.009497869018204596614 4650.83129345477027528 19.009497869018204596614 383.01983479210758787
20.009497869018190385759 4667.17411098054526519 20.009497869018190385759 379.62634075616574592
21.009497869018204596614 4682.46517392551231751 21.009497869018204596614 376.63697881304972270
22.009497869018190385759 4696.81926690871478058 22.009497869018190385759 373.97551107602527054
23.009497869018190385759 4710.33354664098897047 23.009497869018190385759 371.62455970855131682
24.009497869018190385759 4723.09088611717288586 24.009497869018190385759 369.44628484212495323
25.009497869018190385759 4735.16202467970106227 25.009497869018190385759 367.45537761380973052
26.009497869018204596614 4746.60882084655349900 26.009497869018204596614 365.66299710680374346
27.009497869018190385759 4757.48453423051523714 27.009497869018190385759 363.95539188331747482
28.009497869018190385759 4767.83648894935322460 28.009497869018190385759 362.36294752527186347
29.009497869018190385759 4777.70590746318976016 29.009497869018190385759 360.88119680843635706
30.009497869018190385759 4787.12979342628295854 30.009497869018190385759 359.47066292890457362
31.009497869018190385759 4796.14081042545058153 31.009497869018190385759 358.13552575878372863
32.009497869018190385759 4804.76836796173029143 32.009497869018190385759 356.86484955732186108
33.009497869018190385759 4813.03887022033541143 33.009497869018190385759 355.65849692976189544
34.009497869018190385759 4820.97603238881310972 34.009497869018190385759 354.49259565923881610
35.009497869018190385759 4828.60153405434266460 35.009497869018190385759 353.36765842915286839
36.009497869018190385759 4835.93484402867034078 36.009497869018190385759 352.28420544130386816
37.009497869018190385759 4842.99381377051577147 37.009497869018190385759 351.23588563654209338
38.009497869018190385759 4849.79476711859388161 38.009497869018190385759 350.21880158919128689
39.009497869018190385759 4856.35255710089950298 39.009497869018190385759 349.22208772907822549
40.009497869018190385759 4862.68090535311057465 40.009497869018190385759 348.23851387241643351
41.009497869018190385759 4868.79244737426051870 41.009497869018190385759 347.30515999544104488
42.009497869018190385759 4874.69878181184867572 42.009497869018190385759 346.37119568299658567
43.009497869018190385759 4880.41067131989166228 43.009497869018190385759 345.47812404567059730
44.009497869018218807469 4885.93809999387485732 44.009497869018218807469 344.57860933487648936
46.009497869018190385759 4896.47586861160471017 46.009497869018190385759 342.83290316577324575
48.009497869018190385759 4906.37864245686341746 48.009497869018190385759 341.15313225981878986
50.009497869018190385759 4915.70433552223221341 50.009497869018190385759 339.49019783944726214
52.009497869018190385759 4924.50359662248047243 52.009497869018190385759 337.87436401567856592
54.009497869018190385759 4932.82113310285421903 54.009497869018190385759 336.31344312077533232
56.009497869018190385759 4940.69635315000959963 56.009497869018190385759 334.78383895374958001
58.009497869018218807469 4948.16449348200239911 58.009497869018218807469 333.21123477154804959
60.009497869018190385759 4955.25679102303911350 60.009497869018190385759 331.74106311496819899
62.009497869018190385759 4962.00148071337753208 62.009497869018190385759 330.29717102762003833
64.009497869018190385759 4968.42378132391240797 64.009497869018190385759 328.87807351284459401
66.009497869018190385759 4974.54655574419848563 66.009497869018190385759 327.45961336973095968
68.009497869018190385759 4980.39056580185661005 68.009497869018190385759 326.05134174065278785
70.009497869018190385759 4985.97441581337534444 70.009497869018190385759 324.71121831762724241
72.009497869018218807469 4991.31540342029802559 72.009497869018218807469 323.37326114463371596
74.009497869018190385759 4996.42909136413709348 74.009497869018190385759 322.07482576423598175
76.009497869018190385759 5001.32971879226624878 76.009497869018190385759 320.80350612658696718
78.009497869018190385759 5006.03055943977324205 78.009497869018190385759 319.54973675802233402
80.009497869018190385759 5010.54358260981280182 80.009497869018190385759 318.33116619756839327
82.009497869018218807469 5014.87985687688706093 82.009497869018218807469 317.14387580926023702
84.009497869018190385759 5019.04977095036701940 84.009497869018190385759 315.99699634052149122
86.009497869018190385759 5023.06271140532680874 86.009497869018190385759 314.85452846539919847
88.009497869018190385759 5026.92737627571659687 88.009497869018190385759 313.75818195458361970
91.009497869018218807469 5032.46432059041035245 91.009497869018218807469 312.15212625844225158
94.009497869018190385759 5037.71111393670344114 94.009497869018190385759 310.60940118966334467
97.009497869018190385759 5042.69030450296850177 97.009497869018190385759 309.11832028170289277
99.504748934509109403734 5046.64261802804412582 99.504748934509109403734 308.16189227059379618
nan nan nan nan

