Time Pressure difference Time.1 Pressure.1 difference.1
(hr) (psi) (hr) (psi)
0.000200000000006639311 0.41030935613184844 0.000200000000006639311 0.32708394646145172
0.000399999999999067768 0.82038632886375895 0.000399999999999067768 0.85615149757093845
0.000600000000005707079 1.23026635733663858 0.000600000000005707079 1.25263425096854841
0.000799999999998135536 1.63996641669159238 0.000799999999998135536 1.65627145709942458
0.001007140329434719206 2.06411211918447579 0.001007140329434719206 2.07999489120448677
0.001267914553963578328 2.59782947496106464 0.001267914553963578328 2.61719307214678354
0.001596209851982166583 3.26935824888281479 0.001596209851982166583 3.29276974853781690
0.002009509145210586212 4.11418092415272962 0.002009509145210586212 4.14217614184178728
0.002529822128138903281 5.17686117265642132 0.002529822128138903281 5.20984125937584430
0.003184857364445292660 6.51333865416876012 0.003184857364445292660 6.55138882367704234
0.004009497869020606231 8.19378775160874895 0.004009497869020606231 8.23637062545622101
0.005047658755842121536 10.30617007238389959 0.005047658755842121536 10.35161928903044348
0.006354625877804664924 12.96063552979835798 0.006354625877804664924 13.00533385679413101
0.008000000000009777068 16.29495371753750987 0.008000000000009777068 16.33201629853157755
0.010071403294347192059 20.48118424615432431 0.010071403294347192059 20.49837035220233261
0.012679145539692626699 25.73381822919276374 0.012679145539692626699 25.71024693342283740
0.015962098519750611558 32.31963710180941263 0.015962098519750611558 32.22065865015997588
0.020095091452091651263 40.56952938062192970 0.020095091452091651263 40.33876854725355088
0.025298221281346400247 50.89246488098036991 0.025298221281346400247 50.43955413887019290
0.031848573644282396344 63.79172486794501395 0.031848573644282396344 62.97351351365428229
0.040094978690191851456 79.88328943945086280 0.040094978690191851456 78.47525723976106349
0.050476587558421215363 99.91593853298181216 0.050476587558421215363 97.56904399274129958
0.063546258777947173257 124.79205990016596672 0.063546258777947173257 120.96818434235763107
0.079999999999998294697 155.58728552048503957 0.079999999999998294697 149.46367364795179355
0.100714032943542974863 193.56578938442510207 0.100714032943542974863 183.89537134092216775
0.126791455396897845276 240.18626202502204592 0.126791455396897845276 225.09655853218032462
0.159620985197506115583 297.09114390870308853 0.159620985197506115583 273.80001319553724670
0.200950914520774404082 366.06865322448220468 0.200950914520774404082 330.49148761794407392
0.252982212813464002465 448.97370674658969847 0.252982212813464002465 395.19616164309331907
0.318485736442795541734 547.59072120153018659 0.318485736442795541734 467.18850713573459643
0.400949786901819038576 663.42023512949106134 0.400949786901819038576 544.63224400784395129
0.504765875584169521062 797.37590871247709856 0.504765875584169521062 624.19442871668309181
0.635462587779443310865 949.39494996420739881 0.635462587779443310865 700.74567048404230718
0.799999999999997157829 1118.00121997172982447 0.799999999999997157829 767.35218877503075419
1.007140329435330272645 1299.91982280558545426 1.007140329435330272645 815.84013984875878123
1.267914553968893187630 1489.91151167757584517 1.267914553968893187630 838.16633486368243666
1.596209851975103788391 1681.03086935362102849 1.596209851975103788391 828.54374572651852304
2.009509145207687197399 1865.44648571462721520 2.009509145207687197399 785.74633393782426083
2.529822128134711078928 2035.75341244878086400 2.529822128134711078928 714.52836642643865162
3.184857364427983839050 2186.42007662865535167 3.184857364427983839050 625.12108713115117098
4.009497869018190385759 2314.82696873388340464 4.009497869018190385759 530.54065295737689212
5.009497869018190385759 2418.26553195624046566 5.009497869018190385759 445.14437889729896369
6.009497869018190385759 2489.44282386457234679 6.009497869018190385759 385.24342724332848320
7.009497869018204596614 2541.81720026080938624 7.009497869018204596614 343.57091620427183898
8.009497869018190385759 2582.43975321726975380 8.009497869018190385759 314.24122806108266559
9.009497869018204596614 2615.26351871219230816 9.009497869018204596614 293.68634810239495891
10.009497869018190385759 2642.63866201995460870 10.009497869018190385759 279.02204698267382810
11.009497869018190385759 2666.03854766481163097 11.009497869018190385759 267.12720980779772617
12.009497869018190385759 2686.42852798682997673 12.009497869018190385759 258.05742283407812465
13.009497869018190385759 2704.46837554390640435 13.009497869018190385759 250.99481977414274070
14.009497869018204596614 2720.62497335086845851 14.009497869018204596614 245.38550819753038468
15.009497869018190385759 2735.23919182336476297 15.009497869018190385759 240.84603676120107707
16.009497869018190385759 2748.56682401506623137 16.009497869018190385759 237.10795716597598926
17.009497869018190385759 2760.80456628044930767 17.009497869018190385759 234.05109914082524369
18.009497869018190385759 2772.10687793306169624 18.009497869018190385759 231.37474489194110561
19.009497869018204596614 2782.59687824417733282 19.009497869018204596614 229.16113902003522185
20.009497869018190385759 2792.37480183666093581 20.009497869018190385759 227.13080824367682453
21.009497869018204596614 2801.52345964232699771 21.009497869018204596614 225.34227009081737947
22.009497869018190385759 2810.11152741018986490 22.009497869018190385759 223.74991135980636159
23.009497869018190385759 2818.19713409466885423 23.009497869018190385759 222.34333487416967046
24.009497869018190385759 2825.82986268903687233 24.009497869018190385759 221.04007090675676750
25.009497869018190385759 2833.05203661054929398 25.009497869018190385759 219.84890917913617159
26.009497869018204596614 2839.90066587057162906 26.009497869018204596614 218.77652618161923215
27.009497869018190385759 2846.40761574714088056 27.009497869018190385759 217.75486431853823888
28.009497869018190385759 2852.60120030586267603 28.009497869018190385759 216.80210331305707427
29.009497869018190385759 2858.50608298465112966 29.009497869018190385759 215.91557042058147431
30.009497869018190385759 2864.14440310577356286 30.009497869018190385759 215.07164663100724056
31.009497869018190385759 2869.53570332493563910 31.009497869018190385759 214.27283276587425576
32.009497869018190385759 2874.69757937516169477 32.009497869018190385759 213.51258596087339470
33.009497869018190385759 2879.64582890609881360 33.009497869018190385759 212.79082401258813206
34.009497869018190385759 2884.39464073748149531 34.009497869018190385759 212.09326415049116576
35.009497869018190385759 2888.95698578736801210 35.009497869018190385759 211.42021311355867397
36.009497869018190385759 2893.34451226472629060 36.009497869018190385759 210.77198213903253077
37.009497869018190385759 2897.56790071464138236 37.009497869018190385759 210.14477138205734263
38.009497869018190385759 2901.63691770566356354 38.009497869018190385759 209.53624900906712014
39.009497869018190385759 2905.56044981886361711 39.009497869018190385759 208.93991413887809472
40.009497869018190385759 2909.34670672218862819 40.009497869018190385759 208.35144094551128546
41.009497869018190385759 2913.00324824697827353 41.009497869018190385759 207.79301441474811440
42.009497869018190385759 2916.53701387529281419 42.009497869018190385759 207.23422265985112745
43.009497869018190385759 2919.95444291347894250 43.009497869018190385759 206.69989703217910915
44.009497869018218807469 2923.26150885555853165 44.009497869018218807469 206.16171650739576648
46.009497869018190385759 2929.56626605039036804 46.009497869018190385759 205.11725881156093010
48.009497869018190385759 2935.49110525635114755 48.009497869018190385759 204.11225024768285152
50.009497869018190385759 2941.07067647143321665 50.009497869018190385759 203.11731496947510323
52.009497869018190385759 2946.33528293068320636 52.009497869018190385759 202.15056002394362622
54.009497869018190385759 2951.31167308216845413 54.009497869018190385759 201.21665953706582286
56.009497869018190385759 2956.02342488222711836 56.009497869018190385759 200.30149587888169549
58.009497869018218807469 2960.49162049347933134 58.009497869018218807469 199.36060526987037633
60.009497869018190385759 2964.73494899800743951 60.009497869018190385759 198.48100014038755035
62.009497869018190385759 2968.77030338797931108 62.009497869018190385759 197.61711810269014222
64.009497869018190385759 2972.61277207850616833 64.009497869018190385759 196.76807068183541105
66.009497869018190385759 2976.27603395860433011 66.009497869018190385759 195.91940460106476962
68.009497869018190385759 2979.77251084989757146 68.009497869018190385759 195.07683431813325114
70.009497869018190385759 2983.11333373300249150 70.009497869018190385759 194.27503717304639963
72.009497869018218807469 2986.30885180364884945 72.009497869018218807469 193.47453609745682002
74.009497869018190385759 2989.36837626519309197 74.009497869018190385759 192.69768094874797271
76.009497869018190385759 2992.30042641333420761 76.009497869018190385759 191.93704917525167275
78.009497869018190385759 2995.11294393666048563 78.009497869018190385759 191.18691774478764955
80.009497869018190385759 2997.81309008087100665 80.009497869018190385759 190.45784579538982939
82.009497869018218807469 3000.40748718483609991 82.009497869018218807469 189.74748880335596368
84.009497869018190385759 3002.90235082345998308 84.009497869018190385759 189.06130970373433797
86.009497869018190385759 3005.30329699372168761 86.009497869018190385759 188.37777006485657694
88.009497869018190385759 3007.61552973777679654 88.009497869018190385759 187.72182488302152592
91.009497869018218807469 3010.92828889693237215 91.009497869018218807469 186.76092020074275979
94.009497869018190385759 3014.06745044999343008 94.009497869018190385759 185.83790629430097852
97.009497869018190385759 3017.04650499995568680 97.009497869018190385759 184.94579113941688320
99.504748934509109403734 3019.41117801920609054 99.504748934509109403734 184.37355933179944145
nan nan nan nan

