Time Pressure difference Time.1 Pressure.1 difference.1
(hr) (psi) (hr) (psi)
0.000200000000006639311 0.09487883691486960 0.000200000000006639311 0.07563401601745537
0.000399999999999067768 0.18970393811454062 0.000399999999999067768 0.19797417996569366
0.000600000000005707079 0.28448349845106857 0.000600000000005707079 0.28965579028481647
0.000799999999998135536 0.37922144321063189 0.000799999999998135536 0.38299177709804139
0.001007140329434719206 0.47729975981142025 0.001007140329434719206 0.48097244948744722
0.001267914553963578328 0.60071513214109806 0.001267914553963578328 0.60519271850858691
0.001596209851982166583 0.75599764781468737 0.001596209851982166583 0.76141126031097583
0.002009509145210586212 0.95135218124424192 0.002009509145210586212 0.95782572042588987
0.002529822128138903281 1.19708351659803669 0.002529822128138903281 1.20470974354735527
0.003184857364445292660 1.50612699102482472 0.003184857364445292660 1.51492561034317008
0.004009497869020606231 1.89470954093995436 0.004009497869020606231 1.90455629067344634
0.005047658755842121536 2.38317117292447156 0.005047658755842121536 2.39368072809223253
0.006354625877804664924 2.99698265800611141 0.006354625877804664924 3.00731857946152292
0.008000000000009777068 3.76800146815268944 0.008000000000009777068 3.77657172014726195
0.010071403294347192059 4.73601420702148612 0.010071403294347192059 4.73998827616849105
0.012679145539692626699 5.95061922541171473 0.012679145539692626699 5.94516866208966199
0.015962098519750611558 7.47350634808574554 0.015962098519750611558 7.45061883593962904
0.020095091452091651263 9.38118934967728180 0.020095091452091651263 9.32782883242779626
0.025298221281346400247 11.76823731527740691 0.025298221281346400247 11.66350744793347438
0.031848573644282396344 14.75102765709073260 0.031848573644282396344 14.56182665427299838
0.040094978690191851456 18.47199796368640889 0.040094978690191851456 18.14640836781493149
0.050476587558421215363 23.10429410296131181 0.050476587558421215363 22.56160449325052042
0.063546258777947173257 28.85658180247245852 0.063546258777947173257 27.97235905685348811
0.079999999999998294697 35.97758732116692926 0.079999999999998294697 34.56157970763997866
0.100714032943542974863 44.75963486779809131 0.100714032943542974863 42.52347329181566948
0.126791455396897845276 55.54002813560347107 0.126791455396897845276 52.05072550237029816
0.159620985197506115583 68.69856066043033138 0.159620985197506115583 63.31278195596601677
0.200950914520774404082 84.64873522837925179 0.200950914520774404082 76.42196671084306558
0.252982212813464002465 103.81947782781180933 0.252982212813464002465 91.38410228663822465
0.318485736442795541734 126.62341220481630444 0.318485736442795541734 108.03141949994675031
0.400949786901819038576 153.40751887375654405 0.400949786901819038576 125.93930185982600278
0.504765875584169521062 184.38307016880804667 0.504765875584169521062 144.33704842535874491
0.635462587779443310865 219.53554623918793709 0.635462587779443310865 162.03855260685762119
0.799999999999997157829 258.52360867500448194 0.799999999999997157829 177.44046555852636970
1.007140329435330272645 300.58997931001368897 1.007140329435330272645 188.65268953906388560
1.267914553968893187630 344.52314874491611363 1.267914553968893187630 193.81533909626733703
1.596209851975103788391 388.71707729475213000 1.596209851975103788391 191.59023734852559073
2.009509145207687197399 431.36085065206395939 2.009509145207687197399 181.69387843592690501
2.529822128134711078928 470.74216839586409833 2.529822128134711078928 165.22562631361864760
3.184857364427983839050 505.58192441311700804 3.184857364427983839050 144.55132643600654774
4.009497869018190385759 535.27439033602991003 4.009497869018190385759 122.68080007533666276
5.009497869018190385759 559.19324674038830381 5.009497869018190385759 102.93399430890889334
6.009497869018190385759 575.65209314515470851 6.009497869018190385759 89.08265863233154391
7.009497869018204596614 587.76300371142451695 7.009497869018204596614 79.44641875717441337
8.009497869018190385759 597.15645409080889294 8.009497869018190385759 72.66430020073717344
9.009497869018204596614 604.74653373872195061 9.009497869018204596614 67.91124479446861528
10.009497869018190385759 611.07668858067916062 10.009497869018190385759 64.52031106698746044
11.009497869018190385759 616.48761548435811619 11.009497869018190385759 61.76978076691469965
12.009497869018190385759 621.20253994015956778 12.009497869018190385759 59.67250751132841202
13.009497869018190385759 625.37402598784046859 13.009497869018190385759 58.03937008976120637
14.009497869018204596614 629.11003440567753842 14.009497869018204596614 56.74228789963176922
15.009497869018190385759 632.48938715590986703 15.009497869018190385759 55.69259267906069510
16.009497869018190385759 635.57123313938654974 16.009497869018190385759 54.82820916211209550
17.009497869018190385759 638.40105589446500289 17.009497869018190385759 54.12134949706709364
18.009497869018190385759 641.01457217924757970 18.009497869018190385759 53.50247650645290776
19.009497869018204596614 643.44025176437367008 19.009497869018204596614 52.99060821152944101
20.009497869018190385759 645.70127263565791509 20.009497869018190385759 52.52111995898409447
21.009497869018204596614 647.81678377124808321 21.009497869018204596614 52.10754318530057105
22.009497869018190385759 649.80266556746778406 22.009497869018190385759 51.73933041585786441
23.009497869018190385759 651.67235960809796325 23.009497869018190385759 51.41407743540636943
24.009497869018190385759 653.43733133174475824 24.009497869018190385759 51.11271416505126552
25.009497869018190385759 655.10736749209456775 25.009497869018190385759 50.83727311647367486
26.009497869018204596614 656.69102618508134128 26.009497869018204596614 50.58929814341701814
27.009497869018190385759 658.19567585228003281 27.009497869018190385759 50.35305178968227580
28.009497869018190385759 659.62786376241058406 28.009497869018190385759 50.13273788577790668
29.009497869018190385759 660.99329302281989840 29.009497869018190385759 49.92773839340017616
30.009497869018190385759 662.29708307111195609 30.009497869018190385759 49.73259171589214134
31.009497869018190385759 663.54375289866675303 31.009497869018190385759 49.54787613653076050
32.009497869018190385759 664.73737129567632564 32.009497869018190385759 49.37207870089161332
33.009497869018190385759 665.88159126834739254 33.009497869018190385759 49.20518040047676323
34.009497869018190385759 666.97969380136487416 34.009497869018190385759 49.04387852567138850
35.009497869018190385759 668.03467825509108025 35.009497869018190385759 48.88824400597502517
36.009497869018190385759 669.04923813018012879 36.009497869018190385759 48.73834881105417338
37.009497869018190385759 670.02584316728007252 37.009497869018190385759 48.59331427495849454
38.009497869018190385759 670.96675176155304143 38.009497869018190385759 48.45260119073762439
39.009497869018190385759 671.87401882221183769 39.009497869018190385759 48.31470631203266208
40.009497869018190385759 672.74954273089144863 40.009497869018190385759 48.17862934642654693
41.009497869018190385759 673.59507160274949911 41.009497869018190385759 48.04950029063140704
42.009497869018190385759 674.41221010503727484 42.009497869018190385759 47.92028678138544961
43.009497869018190385759 675.20244724571318784 43.009497869018190385759 47.79673075389131043
44.009497869018218807469 675.96716431954098425 44.009497869018218807469 47.67228333031058440
46.009497869018190385759 677.42505949238227458 46.009497869018190385759 47.43076572924532286
48.009497869018190385759 678.79510344670200084 48.009497869018190385759 47.19837023982930191
50.009497869018190385759 680.08530855526043979 50.009497869018190385759 46.96830407002061492
52.009497869018190385759 681.30268205699371720 52.009497869018190385759 46.74475424488756659
54.009497869018190385759 682.45340919141426639 54.009497869018190385759 46.52880159680629646
56.009497869018190385759 683.54294206201598172 56.009497869018190385759 46.31718160282456864
58.009497869018218807469 684.57615565163621341 58.009497869018218807469 46.09961257761708708
60.009497869018190385759 685.55737157357577871 60.009497869018190385759 45.89621504260483675
62.009497869018190385759 686.49049611811290106 62.009497869018190385759 45.69645327323869566
64.009497869018190385759 687.37901828995882170 64.009497869018190385759 45.50012182095180435
66.009497869018190385759 688.22610115878467241 66.009497869018190385759 45.30387854872491715
68.009497869018190385759 689.03461711336376538 68.009497869018190385759 45.10904485246894779
70.009497869018190385759 689.80714005185052429 70.009497869018190385759 44.92363942743872229
72.009497869018218807469 690.54606309455573410 72.009497869018218807469 44.73853370204884072
74.009497869018190385759 691.25353933921303451 74.009497869018190385759 44.55889579747924500
76.009497869018190385759 691.93153876494943688 76.009497869018190385759 44.38300934275596177
78.009497869018190385759 692.58189778657060742 78.009497869018190385759 44.20955095924095701
80.009497869018190385759 693.20627235135748379 80.009497869018190385759 44.04096231374126091
82.009497869018218807469 693.80619379121969814 82.009497869018218807469 43.87670126487338251
84.009497869018190385759 694.38309937905569313 84.009497869018190385759 43.71803104711098342
86.009497869018190385759 694.93828774297003292 86.009497869018190385759 43.55997117118387507
88.009497869018190385759 695.47296225173738549 88.009497869018190385759 43.40829216361957776
91.009497869018218807469 696.23899580983834312 91.009497869018218807469 43.18609513769710873
94.009497869018190385759 696.96488712231075624 94.009497869018190385759 42.97265987332720272
97.009497869018190385759 697.65375572007087612 97.009497869018190385759 42.76636955353656333
99.504748934509109403734 698.20055637766631662 99.504748934509109403734 42.63404820248506155
nan nan nan nan

