Time Pressure difference Time.1 Pressure.1 difference.1
(hr) (psi) (hr) (psi)
0.000200000000006639311 0.58092480847876304 0.000200000000006639311 0.46309248403670045
0.000399999999999067768 1.16152060354341513 0.000399999999999067768 1.21215769838644016
0.000600000000005707079 1.74183756069163032 0.000600000000005707079 1.77350650542808674
0.000799999999998135536 2.32189971369316739 0.000799999999998135536 2.34498474047748129
0.001007140329434719206 2.92241431884536285 0.001007140329434719206 2.94490148896700177
0.001267914553963578328 3.67806282661830242 0.001267914553963578328 3.70547822385082082
0.001596209851982166583 4.62882770328641957 0.001596209851982166583 4.66197420786895744
0.002009509145210586212 5.82494581147790225 0.002009509145210586212 5.86458204260764138
0.002529822128138903281 7.32951135601254133 0.002529822128138903281 7.37620527189521180
0.003184857364445292660 9.22172490995901306 0.003184857364445292660 9.27559715806607521
0.004009497869020606231 11.60094087347445679 0.004009497869020606231 11.66123062184268022
0.005047658755842121536 14.59169718159018636 0.005047658755842121536 14.65604515972261801
0.006354625877804664924 18.34994644989706813 0.006354625877804664924 18.41323130231704397
0.008000000000009777068 23.07074583132085266 0.008000000000009777068 23.12321983037534068
0.010071403294347192059 28.99770102193857824 0.010071403294347192059 29.02203348040005793
0.012679145539692626699 36.43449315208225414 0.012679145539692626699 36.40112040472442345
0.015962098519750611558 45.75883711371799478 0.015962098519750611558 45.61870129373561866
0.020095091452091651263 57.43921198311177534 0.020095091452091651263 57.11249583363686355
0.025298221281346400247 72.05464601810201941 0.025298221281346400247 71.41340525138214446
0.031848573644282396344 90.31769565481869222 0.031848573644282396344 89.15925442703994008
0.040094978690191851456 113.10047876011502410 0.040094978690191851456 111.10695649767387749
0.050476587558421215363 141.46313406900873133 0.050476587558421215363 138.14035031832335676
0.063546258777947173257 176.68328156250680649 0.063546258777947173257 171.26935633055910557
0.079999999999998294697 220.28382412433788318 0.079999999999998294697 211.61388277133949032
0.100714032943542974863 274.05460647125494233 0.100714032943542974863 260.36302068146790134
0.126791455396897845276 340.06087402325636049 0.126791455396897845276 318.69654737416203716
0.159620985197506115583 420.62802930684534886 0.159620985197506115583 387.65194566021295941
0.200950914520774404082 518.28787008253254953 0.200950914520774404082 467.91695407165315146
0.252982212813464002465 635.66662740186529845 0.252982212813464002465 559.52722277257441874
0.318485736442795541734 775.29071683299810047 0.318485736442795541734 661.45553342949847320
0.400949786901819038576 939.28463310422876020 0.400949786901819038576 771.10204121191713966
0.504765875584169521062 1128.94195594585994513 0.504765875584169521062 883.74789299035444401
0.635462587779443310865 1344.17378311362449494 0.635462587779443310865 992.13078701391782488
0.799999999999997157829 1582.89016539607973755 0.799999999999997157829 1086.43372771799499787
1.007140329435330272645 1840.45443472271540486 1.007140329435330272645 1155.08401138830345189
1.267914553968893187630 2109.44875284167937934 1.267914553968893187630 1186.69391832626843097
1.596209851975103788391 2380.03964869944729799 1.596209851975103788391 1173.07004973044627150
2.009509145207687197399 2641.13924346614567185 2.009509145207687197399 1112.47655393225431908
2.529822128134711078928 2882.26345210800991481 2.529822128134711078928 1011.64462427110368026
3.184857364427983839050 3095.58055473996228102 3.184857364427983839050 885.05987589765425128
4.009497869018190385759 3277.38179346095466826 4.009497869018190385759 751.15086361916655733
5.009497869018190385759 3423.83233530518418775 5.009497869018190385759 630.24498269840717057
6.009497869018190385759 3524.60667557296437735 6.009497869018190385759 545.43592741550367009
7.009497869018204596614 3598.75944377696805532 7.009497869018204596614 486.43509028515569526
8.009497869018190385759 3656.27372767881206528 8.009497869018190385759 444.90948719398721778
9.009497869018204596614 3702.74632061077090839 9.009497869018204596614 415.80744619771132875
10.009497869018190385759 3741.50463709924588329 10.009497869018190385759 395.04541337506350374
11.009497869018190385759 3774.63469831650854758 11.009497869018190385759 378.20444715181099582
12.009497869018190385759 3803.50327086167862944 12.009497869018190385759 365.36324774480027600
13.009497869018190385759 3829.04447490800521336 13.009497869018190385759 355.36386247941510419
14.009497869018204596614 3851.91933346634095869 14.009497869018204596614 347.42207854335941875
15.009497869018190385759 3872.61045820021990949 15.009497869018190385759 340.99499728056457570
16.009497869018190385759 3891.48000641483986328 16.009497869018190385759 335.70254381714249803
17.009497869018190385759 3908.80646503803973246 17.009497869018190385759 331.37457849958622091
18.009497869018190385759 3924.80852088697201907 18.009497869018190385759 327.58533860968537965
19.009497869018204596614 3939.66048887309489146 19.009497869018204596614 324.45126782146974165
20.009497869018190385759 3953.50428333060699515 20.009497869018190385759 321.57668185413069750
21.009497869018204596614 3966.45714975729060825 21.009497869018204596614 319.04443108192805312
22.009497869018190385759 3978.61632075519719365 22.009497869018190385759 316.78993535323502329
23.009497869018190385759 3990.06409654782783036 23.009497869018190385759 314.79847412204952661
24.009497869018190385759 4000.87067780313873300 24.009497869018190385759 312.95328497548928226
25.009497869018190385759 4011.09598692528106767 25.009497869018190385759 311.26681259033881588
26.009497869018204596614 4020.79242348409479746 26.009497869018204596614 309.74850968513226235
27.009497869018190385759 4030.00510302536395102 27.009497869018190385759 308.30201885261601547
28.009497869018190385759 4038.77411321195222627 28.009497869018190385759 306.95307933572786396
29.009497869018190385759 4047.13437306954665473 29.009497869018190385759 305.69790700520456994
30.009497869018190385759 4055.11722792663294967 30.009497869018190385759 304.50306155870799785
31.009497869018190385759 4062.75034669534534260 31.009497869018190385759 303.37208371314449096
32.009497869018190385759 4070.05864179282525583 32.009497869018190385759 302.29570994054688526
33.009497869018190385759 4077.06447987110868780 33.009497869018190385759 301.27382385555074507
34.009497869018190385759 4083.78794976625158597 34.009497869018190385759 300.28620360454937099
35.009497869018190385759 4090.24741598292666822 35.009497869018190385759 299.33328347518045121
36.009497869018190385759 4096.45937030583991145 36.009497869018190385759 298.41550412382292734
37.009497869018190385759 4102.43893448036396876 37.009497869018190385759 297.52748564843005852
38.009497869018190385759 4108.19993622424590285 38.009497869018190385759 296.66592658890232315
39.009497869018190385759 4113.75495735003369191 39.009497869018190385759 295.82162285788416511
40.009497869018190385759 4119.11562128212517564 40.009497869018190385759 294.98844985794494278
41.009497869018190385759 4124.29263139227350621 41.009497869018190385759 294.19781756895372382
42.009497869018190385759 4129.29581274838619720 42.009497869018190385759 293.40666818778112201
43.009497869018190385759 4134.13428225884035783 43.009497869018190385759 292.65015847558015594
44.009497869018218807469 4138.81649732490859606 44.009497869018218807469 291.88819091716482035
46.009497869018190385759 4147.74290812002527673 46.009497869018190385759 290.40942525450213907
48.009497869018190385759 4156.13142285787671426 48.009497869018190385759 288.98651252106009224
50.009497869018190385759 4164.03109975062943704 50.009497869018190385759 287.57786176205604534
52.009497869018190385759 4171.48484277001352893 52.009497869018190385759 286.20910932396071757
54.009497869018190385759 4178.53052294392273325 54.009497869018190385759 284.88687293483155827
56.009497869018190385759 4185.20152244988730672 56.009497869018190385759 283.59116455062763862
58.009497869018218807469 4191.52768986703540577 58.009497869018218807469 282.25903139628707095
60.009497869018190385759 4197.53548559961382125 60.009497869018190385759 281.01366754156288152
62.009497869018190385759 4203.24882710914698691 62.009497869018190385759 279.79056477825093907
64.009497869018190385759 4208.68907689816842321 64.009497869018190385759 278.58846518442419438
66.009497869018190385759 4213.87560183185723872 66.009497869018190385759 277.38690550008766422
68.009497869018190385759 4218.82598899234926648 68.009497869018190385759 276.19397637739757556
70.009497869018190385759 4223.55599786133007001 70.009497869018190385759 275.05877473993177773
72.009497869018218807469 4228.08028105263019825 72.009497869018218807469 273.92540810552708308
74.009497869018190385759 4232.41202156816416391 74.009497869018190385759 272.82551988281153399
76.009497869018190385759 4236.56328120995294739 76.009497869018190385759 271.74860106354088884
78.009497869018190385759 4240.54530399145824049 78.009497869018190385759 270.68654885570339275
80.009497869018190385759 4244.36822895831210189 80.009497869018190385759 269.65431311395968805
82.009497869018218807469 4248.04143216027568997 82.009497869018218807469 268.64857441124235038
84.009497869018190385759 4251.57371374193826341 84.009497869018190385759 267.67706728845143971
86.009497869018190385759 4254.97302495257099508 86.009497869018190385759 266.70929717093281397
88.009497869018190385759 4258.24673378695388237 88.009497869018190385759 265.78059587900406768
91.009497869018218807469 4262.93700943216754240 91.009497869018218807469 264.42012636940859238
94.009497869018190385759 4267.38150185414906446 94.009497869018190385759 263.11330343493324335
97.009497869018190385759 4271.59931133867939934 97.009497869018190385759 261.85022761726770568
99.504748934509109403734 4274.94726624220220401 99.504748934509109403734 261.04004952047870347
nan nan nan nan

