Time Pressure difference Time.1 Pressure.1 difference.1
(hr) (psi) (hr) (psi)
0.000200000000006639311 0.23719709228717403 0.000200000000006639311 0.18908504004363844
0.000399999999999067768 0.47425984528635151 0.000399999999999067768 0.49493544991423416
0.000600000000005707079 0.71120874612767149 0.000600000000005707079 0.72413947571204118
0.000799999999998135536 0.94805360802657979 0.000799999999998135536 0.95747944274510355
0.001007140329434719206 1.19324939952855069 0.001007140329434719206 1.20243112371861804
0.001267914553963578328 1.50178783035274521 0.001267914553963578328 1.51298179627146712
0.001596209851982166583 1.88999411953671848 0.001596209851982166583 1.90352815077743998
0.002009509145210586212 2.37838045311060453 0.002009509145210586212 2.39456430106472506
0.002529822128138903281 2.99270879149509206 0.002529822128138903281 3.01177435886838829
0.003184857364445292660 3.76531747756206148 0.003184857364445292660 3.78731402585792498
0.004009497869020606231 4.73677385234988613 0.004009497869020606231 4.76139072668361596
0.005047658755842121536 5.95792793231117912 0.005047658755842121536 5.98420182023058178
0.006354625877804664924 7.49245664501527830 0.006354625877804664924 7.51829644865380775
0.008000000000009777068 9.42000367038172293 0.008000000000009777068 9.44142930036815464
0.010071403294347192059 11.84003551755371753 0.010071403294347192059 11.84997069042122675
0.012679145539692626699 14.87654806352928460 0.012679145539692626699 14.86292165522415409
0.015962098519750611558 18.68376587021436563 0.015962098519750611558 18.62654708984907259
0.020095091452091651263 23.45297337419320272 0.020095091452091651263 23.31957208106949153
0.025298221281346400247 29.42059328819351904 0.025298221281346400247 29.15876861983368329
0.031848573644282396344 36.87756914272683417 0.031848573644282396344 36.40456663568249240
0.040094978690191851456 46.17999490921602046 0.040094978690191851456 45.36602091953732696
0.050476587558421215363 57.76073525740327597 0.050476587558421215363 56.40401123312631171
0.063546258777947173257 72.14145450618114808 0.063546258777947173257 69.93089764213371495
0.079999999999998294697 89.94396830291732670 0.079999999999998294697 86.40394926909993956
0.100714032943542974863 111.89908716949523182 0.100714032943542974863 106.30868322953918437
0.126791455396897845276 138.85007033900868123 0.126791455396897845276 130.12681375592575250
0.159620985197506115583 171.74640165107581424 0.159620985197506115583 158.28195488991505613
0.200950914520774404082 211.62183807094811527 0.200950914520774404082 191.05491677710764975
0.252982212813464002465 259.54869456952951623 0.252982212813464002465 228.46025571659555453
0.318485736442795541734 316.55853051204081794 0.318485736442795541734 270.07854874986685445
0.400949786901819038576 383.51879718439136013 0.400949786901819038576 314.84825464956497854
0.504765875584169521062 460.95767542202020195 0.504765875584169521062 360.84262106339690490
0.635462587779443310865 548.83886559796985694 0.635462587779443310865 405.09638151714409560
0.799999999999997157829 646.30902168751106274 0.799999999999997157829 443.60116389631599532
1.007140329435330272645 751.47494827503430770 1.007140329435330272645 471.63172384765965717
1.267914553968893187630 861.30787186229019881 1.267914553968893187630 484.53834774066837099
1.596209851975103788391 971.79269323688026816 1.596209851975103788391 478.97559337131400525
2.009509145207687197399 1078.40212663015972794 2.009509145207687197399 454.23469608981724832
2.529822128134711078928 1176.85542098966016056 2.529822128134711078928 413.06406578404664742
3.184857364427983839050 1263.95481103279257695 3.184857364427983839050 361.37831609001642619
4.009497869018190385759 1338.18597584007466139 4.009497869018190385759 306.70200018834162847
5.009497869018190385759 1397.98311685097064583 5.009497869018190385759 257.33498577227220494
6.009497869018190385759 1439.13023286288671443 6.009497869018190385759 222.70664658082884557
7.009497869018204596614 1469.40750927856151975 7.009497869018204596614 198.61604689293605475
8.009497869018190385759 1492.89113522702200498 8.009497869018190385759 181.66075050184295492
9.009497869018204596614 1511.86633434680470600 9.009497869018204596614 169.77811198617155242
10.009497869018190385759 1527.69172145169773103 10.009497869018190385759 161.30077766746865109
11.009497869018190385759 1541.21903871089534732 11.009497869018190385759 154.42445191728674558
12.009497869018190385759 1553.00634985039869207 12.009497869018190385759 149.18126877832102650
13.009497869018190385759 1563.43506496960117147 13.009497869018190385759 145.09842522440300172
14.009497869018204596614 1572.77508601419367551 14.009497869018204596614 141.85571974907941240
15.009497869018190385759 1581.22346788977461074 15.009497869018190385759 139.23148169765173066
16.009497869018190385759 1588.92808284846614697 16.009497869018190385759 137.07052290528025651
17.009497869018190385759 1596.00263973616256408 17.009497869018190385759 135.30337374266773054
18.009497869018190385759 1602.53643044811883556 18.009497869018190385759 133.75619126613230492
19.009497869018204596614 1608.60062941093406153 19.009497869018204596614 132.47652052882361318
20.009497869018190385759 1614.25318158914478772 20.009497869018190385759 131.30279989746023261
21.009497869018204596614 1619.54195942811998066 21.009497869018204596614 130.26885796325143474
22.009497869018190385759 1624.50666391866957383 22.009497869018190385759 129.34832603964466102
23.009497869018190385759 1629.18089902024485127 23.009497869018190385759 128.53519358851590937
24.009497869018190385759 1633.59332832936206614 24.009497869018190385759 127.78178541262815315
25.009497869018190385759 1637.76841873023636253 25.009497869018190385759 127.09318279118419071
26.009497869018204596614 1641.72756546270329636 26.009497869018204596614 126.47324535854255600
27.009497869018190385759 1645.48918963070013888 27.009497869018190385759 125.88262947420568594
28.009497869018190385759 1649.06965940602617593 28.009497869018190385759 125.33184471444477026
29.009497869018190385759 1652.48323255704985968 29.009497869018190385759 124.81934598350045462
30.009497869018190385759 1655.74270767777989022 30.009497869018190385759 124.33147928973035334
31.009497869018190385759 1658.85938224666665519 31.009497869018190385759 123.86969034132691547
32.009497869018190385759 1661.84342823919087095 32.009497869018190385759 123.43019675222902265
33.009497869018190385759 1664.70397817086836767 33.009497869018190385759 123.01295100119192227
34.009497869018190385759 1667.44923450341207172 34.009497869018190385759 122.60969631417844994
35.009497869018190385759 1670.08669563772787114 35.009497869018190385759 122.22061001493757715
36.009497869018190385759 1672.62309532545032198 36.009497869018190385759 121.84587202763542280
37.009497869018190385759 1675.06460791820018130 37.009497869018190385759 121.48328568739621858
38.009497869018190385759 1677.41687940388260358 38.009497869018190385759 121.13150297684407519
39.009497869018190385759 1679.68504705552982159 39.009497869018190385759 120.78676578008165166
40.009497869018190385759 1681.87385682722856473 40.009497869018190385759 120.44657336606634601
41.009497869018190385759 1683.98767900687380461 41.009497869018190385759 120.12375072657852115
42.009497869018190385759 1686.03052526259330079 42.009497869018190385759 119.80071695346363470
43.009497869018190385759 1688.00611811428302644 43.009497869018190385759 119.49182688472828318
44.009497869018218807469 1689.91791079885251747 44.009497869018218807469 119.18070832577646456
46.009497869018190385759 1693.56264873095574330 46.009497869018190385759 118.57691432311331425
48.009497869018190385759 1696.98775861675471788 48.009497869018190385759 117.99592559957325477
50.009497869018190385759 1700.21327138815081526 50.009497869018190385759 117.42076017505152663
52.009497869018190385759 1703.25670514248417931 52.009497869018190385759 116.86188561221892712
54.009497869018190385759 1706.13352297853566597 54.009497869018190385759 116.32200399201573759
56.009497869018190385759 1708.85735515504006798 56.009497869018190385759 115.79295400706142516
58.009497869018218807469 1711.44038912909036299 58.009497869018218807469 115.24903144404271416
60.009497869018190385759 1713.89342893393950362 60.009497869018190385759 114.74053760651207767
62.009497869018190385759 1716.22624029528219580 62.009497869018190385759 114.24113318309673559
64.009497869018190385759 1718.44754572489705424 64.009497869018190385759 113.75030455237950378
66.009497869018190385759 1720.56525289696173786 66.009497869018190385759 113.25969637181229643
68.009497869018190385759 1722.58654278340918609 68.009497869018190385759 112.77261213117238015
70.009497869018190385759 1724.51785012962614019 70.009497869018190385759 112.30909856859679508
72.009497869018218807469 1726.36515773638939208 72.009497869018218807469 111.84633425512208760
74.009497869018190385759 1728.13384834803241574 74.009497869018190385759 111.39723949369812317
76.009497869018190385759 1729.82884691237359220 76.009497869018190385759 110.95752335688990797
78.009497869018190385759 1731.45474446642651856 78.009497869018190385759 110.52387739810238543
80.009497869018190385759 1733.01568087839382315 80.009497869018190385759 110.10240578435315228
82.009497869018218807469 1734.51548447804930220 82.009497869018218807469 109.69175316218347405
84.009497869018190385759 1735.95774844763923284 84.009497869018190385759 109.29507761777745145
86.009497869018190385759 1737.34571935742519599 86.009497869018190385759 108.89992792795968057
88.009497869018190385759 1738.68240562934352056 88.009497869018190385759 108.52073040904893730
91.009497869018218807469 1740.59748952459585780 91.009497869018218807469 107.96523784424276471
94.009497869018190385759 1742.41221780577711797 94.009497869018190385759 107.43164968331801390
97.009497869018190385759 1744.13438930017696293 97.009497869018190385759 106.91592388384140122
99.504748934509109403734 1745.50139094416567787 99.504748934509109403734 106.58512050621266098
nan nan nan nan

