Time Pressure difference Time.1 Pressure.1 difference.1
(hr) (psi) (hr) (psi)
0.000200000000006639311 0.61005427595262651 0.000200000000006639311 0.48631345386662095
0.000399999999999067768 1.21976304068384422 0.000399999999999067768 1.27293924486713572
0.000600000000005707079 1.82917898565467785 0.000600000000005707079 1.86243591472605674
0.000799999999998135536 2.43832734976660648 0.000799999999998135536 2.46256993520056477
0.001007140329434719206 3.06895371878746559 0.001007140329434719206 3.09256846907279659
0.001267914553963578328 3.86249291104758630 0.001267914553963578328 3.89128300584907194
0.001596209851982166583 4.86093224428215631 0.001596209851982166583 4.89574082287671342
0.002009509145210586212 6.11702762150902846 0.002009509145210586212 6.15865134273839754
0.002529822128138903281 7.69703699707334099 0.002529822128138903281 7.74607229842290845
0.003184857364445292660 9.68413231948417952 0.003184857364445292660 9.74070589808371601
0.004009497869020606231 12.18264994306128557 0.004009497869020606231 12.24596281634768502
0.005047658755842121536 15.32337254169857488 0.005047658755842121536 15.39094713764567146
0.006354625877804664924 19.27007270454806687 0.006354625877804664924 19.33653086618680916
0.008000000000009777068 24.22758838733264142 0.008000000000009777068 24.28269360410476452
0.010071403294347192059 30.45174047146272045 0.010071403294347192059 30.47729303887284047
0.012679145539692626699 38.26143765111216055 0.012679145539692626699 38.22639148519054686
0.015962098519750611558 48.05333467672677727 0.015962098519750611558 47.90617198898024753
0.020095091452091651263 60.31940169573199029 0.020095091452091651263 59.97630293131206258
0.025298221281346400247 75.66770133419596789 0.025298221281346400247 74.99430666083540586
0.031848573644282396344 94.84651993550444615 0.031848573644282396344 93.62999068054480745
0.040094978690191851456 118.77170620510646870 0.040094978690191851456 116.67822222463459525
0.050476587558421215363 148.55655769711088965 0.050476587558421215363 145.06715871537397788
0.063546258777947173257 185.54275843168693427 0.063546258777947173257 179.85736130415446610
0.079999999999998294697 231.32957461767858831 0.079999999999998294697 222.22489408508857878
0.100714032943542974863 287.79659963242107779 0.100714032943542974863 273.41847300790249164
0.126791455396897845276 357.11263704734511748 0.126791455396897845276 334.67703327401250135
0.159620985197506115583 441.71969266750380712 0.159620985197506115583 407.09008047125519170
0.200950914520774404082 544.27651686317528856 0.200950914520774404082 491.37983858814004634
0.252982212813464002465 667.54102848935144721 0.252982212813464002465 587.58374540443696787
0.318485736442795541734 814.16632584324872823 0.318485736442795541734 694.62307450404352949
0.400949786901819038576 986.38343275845227254 0.400949786901819038576 809.76761634431977654
0.504765875584169521062 1185.55079327838870995 0.504765875584169521062 928.06189908585929516
0.635462587779443310865 1411.57504730986624963 0.635462587779443310865 1041.87946544584792719
0.799999999999997157829 1662.26144876121293237 0.799999999999997157829 1140.91106363508652066
1.007140329435330272645 1932.74083187929863925 1.007140329435330272645 1213.00369677310368388
1.267914553968893187630 2215.22340377213549800 1.267914553968893187630 1246.19862769792962354
1.596209851975103788391 2499.38261102678370662 1.596209851975103788391 1231.89161382867769134
2.009509145207687197399 2773.57459235055148383 2.009509145207687197399 1168.25976222398617210
2.529822128134711078928 3026.78955644007328374 2.529822128134711078928 1062.37179024458305321
3.184857364427983839050 3250.80307539311206710 3.184857364427983839050 929.43966910169126550
4.009497869018190385759 3441.72042207289405269 4.009497869018190385759 788.81602153703295244
5.009497869018190385759 3595.51447246232100952 5.009497869018190385759 661.84752481079135578
6.009497869018190385759 3701.34196732805594365 6.009497869018190385759 572.78586646928954451
7.009497869018204596614 3779.21299754801930249 7.009497869018204596614 510.82653464042846281
8.009497869018190385759 3839.61123551370928908 8.009497869018190385759 467.21870216789778851
9.009497869018204596614 3888.41411605686971598 9.009497869018204596614 436.65738977496050666
10.009497869018190385759 3929.11590113717375061 10.009497869018190385759 414.85428080791058392
11.009497869018190385759 3963.90721184240783259 11.009497869018190385759 397.16885352761818240
12.009497869018190385759 3994.22334891348145902 12.009497869018190385759 383.68375443687477855
13.009497869018190385759 4021.04527236041258220 13.009497869018190385759 373.18296733153476907
14.009497869018204596614 4045.06715104703152974 14.009497869018204596614 364.84295640728146282
15.009497869018190385759 4066.79579636212201876 15.009497869018190385759 358.09360029606563103
16.009497869018190385759 4086.61152536114241229 16.009497869018190385759 352.53576592831723246
17.009497869018190385759 4104.80678921616527077 17.009497869018190385759 347.99078229254547523
18.009497869018190385759 4121.61124041568837129 18.009497869018190385759 344.01153753710508454
19.009497869018204596614 4137.20793459022752359 19.009497869018204596614 340.72031420220247355
20.009497869018190385759 4151.74590212225575669 20.009497869018190385759 337.70158710469598873
21.009497869018204596614 4165.34826758179679018 21.009497869018204596614 335.04236100723966274
22.009497869018190385759 4178.11713913117455377 22.009497869018190385759 332.67481749845455852
23.009497869018190385759 4190.13894379592784389 23.009497869018190385759 330.58349789607780167
24.009497869018190385759 4201.48740233481566975 24.009497869018190385759 328.64578493844362583
25.009497869018190385759 4212.22544185706465214 25.009497869018190385759 326.87474731908076819
26.009497869018204596614 4222.40808941811064869 26.009497869018204596614 325.28031174670769587
27.009497869018190385759 4232.08272280457276793 27.009497869018190385759 323.76128913892199535
28.009497869018190385759 4241.29143980567459948 28.009497869018190385759 322.34470938837898757
29.009497869018190385759 4250.07091040111481561 29.009497869018190385759 321.02659861721343759
30.009497869018190385759 4258.45405167653552780 30.009497869018190385759 319.77183971709592925
31.009497869018190385759 4266.46991995370717632 31.009497869018190385759 318.58415094804428236
32.009497869018190385759 4274.14467683974271495 32.009497869018190385759 317.45380427853990568
33.009497869018190385759 4281.50181052367224765 33.009497869018190385759 316.38067748727604567
34.009497869018190385759 4288.56241716140812059 34.009497869018190385759 315.34353473085195674
35.009497869018190385759 4295.34578211387542979 35.009497869018190385759 314.34283207350608791
36.009497869018190385759 4301.86922411773775821 36.009497869018190385759 313.37903226756765207
37.009497869018190385759 4308.14862317207280284 37.009497869018190385759 312.44648564512783651
38.009497869018190385759 4314.19850036156549322 38.009497869018190385759 311.54172520009370828
39.009497869018190385759 4320.03206839194081113 39.009497869018190385759 310.65508532210469639
40.009497869018190385759 4325.66153352406581689 40.009497869018190385759 309.78013430640930892
41.009497869018190385759 4331.09813583171398932 41.009497869018190385759 308.94985713186684961
42.009497869018190385759 4336.35219304379188543 42.009497869018190385759 308.11903693645211888
43.009497869018190385759 4341.43327922024309373 43.009497869018190385759 307.32459335616084672
44.009497869018218807469 4346.35027584406543610 44.009497869018218807469 306.52441825541802700
46.009497869018190385759 4355.72428603435309924 46.009497869018190385759 304.97150245207740227
48.009497869018190385759 4364.53342830204019265 48.009497869018190385759 303.47724022627085105
50.009497869018190385759 4372.82922079829677386 50.009497869018190385759 301.99795511688694205
52.009497869018190385759 4380.65671884014409443 52.009497869018190385759 300.56056896054906247
54.009497869018190385759 4388.05569243251466105 54.009497869018190385759 299.17203131981597153
56.009497869018190385759 4395.06119764436607511 56.009497869018190385759 297.81135188482818421
58.009497869018218807469 4401.70457976008128753 58.009497869018218807469 296.41242122274849180
60.009497869018190385759 4408.01362599500953365 60.009497869018190385759 295.10461075639767614
62.009497869018190385759 4414.01345311032218888 62.009497869018190385759 293.82017762529790161
64.009497869018190385759 4419.72649479420852003 64.009497869018190385759 292.55780083120765767
66.009497869018190385759 4425.17308902972945361 66.009497869018190385759 291.29599101943301775
68.009497869018190385759 4430.37170477276868041 68.009497869018190385759 290.04324453385737570
70.009497869018190385759 4435.33889173689840391 70.009497869018190385759 288.85112017818056529
72.009497869018218807469 4440.09003726587161509 72.009497869018218807469 287.66092283861229362
74.009497869018190385759 4444.63898540037916973 74.009497869018190385759 286.50588262765165837
76.009497869018190385759 4448.99840276059603639 76.009497869018190385759 285.37496358105369154
78.009497869018190385759 4453.18009717154654936 78.009497869018190385759 284.25965660634756205
80.009497869018190385759 4457.19471608372805349 80.009497869018190385759 283.17566119273982395
82.009497869018218807469 4461.05210569266728271 82.009497869018218807469 282.11949146624732521
84.009497869018190385759 4464.76150741094625118 84.009497869018190385759 281.09926980291538712
86.009497869018190385759 4468.33127118944776157 86.009497869018190385759 280.08297253050687914
88.009497869018190385759 4471.76913447827701020 88.009497869018190385759 279.10770312222058465
91.009497869018218807469 4476.69459586501307058 91.009497869018218807469 277.67901522747348508
94.009497869018190385759 4481.36194965485810826 94.009497869018190385759 276.30666392235821149
97.009497869018190385759 4485.79125388431475585 97.009497869018190385759 274.98025335738861941
99.504748934509109403734 4489.30708618271455634 99.504748934509109403734 274.12945028439958151
nan nan nan nan

