Time Pressure difference Time.1 Pressure.1 difference.1
(hr) (psi) (hr) (psi)
0.000200000000006639311 0.63419012043097056 0.000200000000006639311 0.50555368601141226
0.000399999999999067768 1.26802106002877135 0.000399999999999067768 1.32330109766542625
0.000600000000005707079 1.90154759490977421 0.000600000000005707079 1.93612028243008916
0.000799999999998135536 2.53479596251317085 0.000799999999998135536 2.55999766797111894
0.001007140329434719206 3.19037207873949313 0.001007140329434719206 3.21492110973188394
0.001267914553963578328 4.01530640957470819 0.001267914553963578328 4.04523553950476433
0.001596209851982166583 5.05324743539290999 0.001596209851982166583 5.08943316102599752
0.002009509145210586212 6.35903826410624795 0.002009509145210586212 6.40230876284673833
0.002529822128138903281 8.00155824252371950 0.002529822128138903281 8.05253354897442897
0.003184857364445292660 10.06726988737645989 0.003184857364445292660 10.12608171124118961
0.004009497869020606231 12.66463745786179906 0.004009497869020606231 12.73045520608040349
0.005047658755842121536 15.92961784007409953 0.005047658755842121536 15.99986591935334346
0.006354625877804664924 20.03246302983032479 0.006354625877804664924 20.10155050482175909
0.008000000000009777068 25.18611507659955251 0.008000000000009777068 25.24340044519485815
0.010071403294347192059 31.65651601535414628 0.010071403294347192059 31.68307953017885836
0.012679145539692626699 39.77519166459408950 0.012679145539692626699 39.73875895186247931
0.015962098519750611558 49.95448980036262299 0.015962098519750611558 49.80150485075436251
0.020095091452091651263 62.70584460047446385 0.020095091452091651263 62.34917166938579669
0.025298221281346400247 78.66137573895952073 0.025298221281346400247 77.96133925723954405
0.031848573644282396344 98.59897433950121126 0.031848573644282396344 97.33431500487742483
0.040094978690191851456 123.47072323095652280 0.040094978690191851456 121.29441382697348217
0.050476587558421215363 154.43396584610982814 0.050476587558421215363 150.80651424435876606
0.063546258777947173257 192.88346783757904745 0.063546258777947173257 186.97313685370491498
0.079999999999998294697 240.48176788358946965 0.079999999999998294697 231.01687488790929592
0.100714032943542974863 299.18282253738726695 0.100714032943542974863 284.23584779266263922
0.126791455396897845276 371.24124069587583108 0.126791455396897845276 347.91800730531724639
0.159620985197506115583 459.19564230919218062 0.159620985197506115583 423.19596360040441141
0.200950914520774404082 565.80996705285076587 0.200950914520774404082 510.82051433037202059
0.252982212813464002465 693.95124653326843145 0.252982212813464002465 610.83057844226595989
0.318485736442795541734 846.37754473745644646 0.318485736442795541734 722.10475139438085534
0.400949786901819038576 1025.40815247195155280 0.400949786901819038576 841.80480716831061727
0.504765875584169521062 1232.45525849676960206 0.504765875584169521062 964.77921842213481796
0.635462587779443310865 1467.42180907246688548 0.635462587779443310865 1083.09979900373264172
0.799999999999997157829 1728.02622640660865727 0.799999999999997157829 1186.04942768067644465
1.007140329435330272645 2009.20670380903902696 1.007140329435330272645 1260.99429323479535014
1.267914553968893187630 2302.86525740022852915 1.267914553968893187630 1295.50252974873410494
1.596209851975103788391 2598.26677981229022407 1.596209851975103788391 1280.62948122435523146
2.009509145207687197399 2883.30673856905877983 2.009509145207687197399 1214.48013480856411661
2.529822128134711078928 3146.53975717235471166 2.529822128134711078928 1104.40287062260904349
3.184857364427983839050 3379.41602107715061720 3.184857364427983839050 966.21149775646483704
4.009497869018190385759 3577.88671435135802312 4.009497869018190385759 820.02429524040815068
5.009497869018190385759 3737.76538610680563579 5.009497869018190385759 688.03248827533843723
6.009497869018190385759 3847.77978049656030635 6.009497869018190385759 595.44724454242657430
7.009497869018204596614 3928.73165638689033585 7.009497869018204596614 531.03658853479737445
8.009497869018190385759 3991.51945629119609293 8.009497869018190385759 485.70348028913798544
9.009497869018204596614 4042.25314656935142921 9.009497869018204596614 453.93305731039549755
10.009497869018190385759 4084.56523419717086654 10.009497869018190385759 431.26734239512671820
11.009497869018190385759 4120.73300876386747404 11.009497869018190385759 412.88221881042983341
12.009497869018190385759 4152.24855644211856998 12.009497869018190385759 398.86360283887938749
13.009497869018190385759 4180.13164739240710333 13.009497869018190385759 387.94736849471962614
14.009497869018204596614 4205.10391418531889940 14.009497869018204596614 379.27739806595968730
15.009497869018190385759 4227.69221941055548086 15.009497869018190385759 372.26101422319516132
16.009497869018190385759 4248.29192677379342058 16.009497869018190385759 366.48329282043351895
17.009497869018190385759 4267.20705782089771674 17.009497869018190385759 361.75849400671160083
18.009497869018190385759 4284.67635088233873830 18.009497869018190385759 357.62181664839579298
19.009497869018204596614 4300.89010389870782092 19.009497869018204596614 354.20038120338102772
20.009497869018190385759 4316.00324340676615975 20.009497869018190385759 351.06222288373578522
21.009497869018204596614 4330.14376520781570434 21.009497869018204596614 348.29778865964067336
22.009497869018190385759 4343.41781721412735351 22.009497869018190385759 345.83657699020784548
23.009497869018190385759 4355.91524580149689427 23.009497869018190385759 343.66251759455838055
24.009497869018190385759 4367.71268837534626073 24.009497869018190385759 341.64814205060582708
25.009497869018190385759 4378.87556165768546634 25.009497869018190385759 339.80703609432401890
26.009497869018204596614 4389.46106976343889983 26.009497869018204596614 338.14951916915589436
27.009497869018190385759 4399.51846490734624240 27.009497869018190385759 336.57039880471836568
28.009497869018190385759 4409.09151041190216347 28.009497869018190385759 335.09777428914702568
29.009497869018190385759 4418.21832704726966767 29.009497869018190385759 333.72751452430645713
30.009497869018190385759 4426.93313421216953429 30.009497869018190385759 332.42311304833168606
31.009497869018190385759 4435.26613779635044921 31.009497869018190385759 331.18843522838983517
32.009497869018190385759 4443.24453445004655805 32.009497869018190385759 330.01336815859133367
33.009497869018190385759 4450.89274163579557353 33.009497869018190385759 328.89778478213418111
34.009497869018190385759 4458.23269014596553461 34.009497869018190385759 327.81960909264557813
35.009497869018190385759 4465.28442833666213119 35.009497869018190385759 326.77931519783305703
36.009497869018190385759 4472.06596013330909045 36.009497869018190385759 325.77738415809892558
37.009497869018190385759 4478.59379380234622658 37.009497869018190385759 324.80794278524888341
38.009497869018190385759 4484.88302493248647806 38.009497869018190385759 323.86738690650940953
39.009497869018190385759 4490.94738896952094365 39.009497869018190385759 322.94566850674459602
40.009497869018190385759 4496.79957509595897136 40.009497869018190385759 322.03610142085113921
41.009497869018190385759 4502.45126808153599995 41.009497869018190385759 321.17297562685206458
42.009497869018190385759 4507.91319385998576763 42.009497869018190385759 320.30928532820803412
43.009497869018190385759 4513.19530527397728292 43.009497869018190385759 319.48341082864192231
44.009497869018218807469 4518.30683518851037661 44.009497869018218807469 318.65157804997073754
46.009497869018190385759 4528.05171344908194442 46.009497869018190385759 317.03722355863982330
48.009497869018190385759 4537.20937567005967139 48.009497869018190385759 315.48384318201686938
50.009497869018190385759 4545.83337823779311293 50.009497869018190385759 313.94603246803256980
52.009497869018190385759 4553.97055901253588672 52.009497869018190385759 312.45177837372216345
54.009497869018190385759 4561.66226143734820653 54.009497869018190385759 311.00830541023151454
56.009497869018190385759 4568.94492851979066472 56.009497869018190385759 309.59379281888004698
58.009497869018218807469 4575.85114567146229092 58.009497869018218807469 308.13951565038786384
60.009497869018190385759 4582.40979946548031876 60.009497869018190385759 306.77996370583230146
62.009497869018190385759 4588.64700036843896669 62.009497869018190385759 305.44471398427970144
64.009497869018190385759 4594.58606962235535320 64.009497869018190385759 304.13239322425681621
66.009497869018190385759 4600.24814985082412022 66.009497869018190385759 302.82066187831918569
68.009497869018190385759 4605.65244070511471364 68.009497869018190385759 301.51835243492405425
70.009497869018190385759 4610.81614666236873745 70.009497869018190385759 300.27906354130095679
72.009497869018218807469 4615.75526384255681478 72.009497869018218807469 299.04177790316856544
74.009497869018190385759 4620.48418400421360275 74.009497869018190385759 297.84104033051920624
76.009497869018190385759 4625.01607490255628363 76.009497869018190385759 296.66537823842139687
78.009497869018190385759 4629.36321152076106955 78.009497869018190385759 295.50594588545266106
80.009497869018190385759 4633.53666255907410232 80.009497869018190385759 294.37906388658632295
82.009497869018218807469 4637.54666376236309588 82.009497869018218807469 293.28110845468006573
84.009497869018190385759 4641.40282216526702541 84.009497869018190385759 292.22052331489970811
86.009497869018190385759 4645.11381807143152400 86.009497869018190385759 291.16401782843956880
88.009497869018190385759 4648.68769505108684825 88.009497869018190385759 290.15016340945720685
91.009497869018218807469 4653.80802462365591055 91.009497869018218807469 288.66495170987013807
94.009497869018190385759 4658.66003497544534184 94.009497869018190385759 287.23830546908180850
97.009497869018190385759 4663.26457770784236345 97.009497869018190385759 285.85941754206015730
99.504748934509109403734 4666.91950841913785553 99.504748934509109403734 284.97495377450542264
nan nan nan nan

