Time Pressure difference Time.1 Pressure.1 difference.1
(hr) (psi) (hr) (psi)
0.000200000000006639311 0.20307400181779112 0.000200000000006639311 0.16188333252858869
0.000399999999999067768 0.40603299035042023 0.000399999999999067768 0.42373420975113385
0.000600000000005707079 0.60889450545667312 0.000600000000005707079 0.61996502482013349
0.000799999999998135536 0.81166694862626476 0.000799999999998135536 0.81973678606949207
0.001007140329434719206 1.02158895959637319 0.001007140329434719206 1.02944980416611509
0.001267914553963578328 1.28574116002129757 0.001267914553963578328 1.29532476593065948
0.001596209851982166583 1.61810022865599756 0.001596209851982166583 1.62968725891121169
0.002009509145210586212 2.03622747564557027 0.002009509145210586212 2.05008312091155398
0.002529822128138903281 2.56217875482386814 0.002529822128138903281 2.57850155636451506
0.003184857364445292660 3.22364022640401071 0.003184857364445292660 3.24247235898011787
0.004009497869020606231 4.05534322797674474 0.004009497869020606231 4.07641872740632394
0.005047658755842121536 5.10082251046992141 0.005047658755842121536 5.12331664609214688
0.006354625877804664924 6.41459446099553698 0.006354625877804664924 6.43671695954922463
0.008000000000009777068 8.06484524762505472 0.008000000000009777068 8.08318859399940237
0.010071403294347192059 10.13673216239686603 0.010071403294347192059 10.14523806478168311
0.012679145539692626699 12.73641307895138830 0.012679145539692626699 12.72474696096383795
0.015962098519750611558 15.99592586783265169 0.015962098519750611558 15.94693856113394226
0.020095091452091651263 20.07903685369523572 0.020095091452091651263 19.96482662379283113
0.025298221281346400247 25.18815706076918914 0.025298221281346400247 24.96399839733129156
0.031848573644282396344 31.57237498535209852 0.031848573644282396344 31.16741845300536440
0.040094978690191851456 39.53655704508318536 0.040094978690191851456 38.83968106795476416
0.050476587558421215363 49.45129615019789782 0.050476587558421215363 48.28974996800989317
0.063546258777947173257 61.76321017371297728 0.063546258777947173257 59.87066324449343568
0.079999999999998294697 77.00466058214675513 0.079999999999998294697 73.97390744442239452
0.100714032943542974863 95.80132375212924956 0.100714032943542974863 91.01515336143003765
0.126791455396897845276 118.87514793936180979 0.126791455396897845276 111.40681598752941284
0.159620985197506115583 147.03902457144735649 0.159620985197506115583 135.51156839697989653
0.200950914520774404082 181.17799469933802925 0.200950914520774404082 163.56982348636586266
0.252982212813464002465 222.21011043847440192 0.252982212813464002465 195.59404349069936302
0.318485736442795541734 271.01853138574722379 0.318485736442795541734 231.22514349111406773
0.400949786901819038576 328.34591758944384310 0.400949786901819038576 269.55429520875043181
0.504765875584169521062 394.64446597534356442 0.504765875584169521062 308.93192820866261172
0.635462587779443310865 469.88309896808647181 0.635462587779443310865 346.81935821116900343
0.799999999999997157829 553.33123260264108012 0.799999999999997157829 379.78485610772315795
1.007140329435330272645 643.36802589160834032 1.007140329435330272645 403.78294953975074577
1.267914553968893187630 737.40042362946951471 1.267914553968893187630 414.83283104815114939
1.596209851975103788391 831.99093736771510521 1.596209851975103788391 410.07033257052842146
2.009509145207687197399 923.26357507985608208 2.009509145207687197399 388.88865209093125941
2.529822128134711078928 1007.55341305781428218 2.529822128134711078928 353.64081421511366443
3.184857364427983839050 1082.12271541053110013 3.184857364427983839050 309.39055833671579876
4.009497869018190385759 1145.67501089466031772 4.009497869018190385759 262.57995805598375227
5.009497869018190385759 1196.86975618118185594 5.009497869018190385759 220.31486501205060335
6.009497869018190385759 1232.09746252120817189 6.009497869018190385759 190.66814654639381388
7.009497869018204596614 1258.01906057532983141 7.009497869018204596614 170.04321207675926075
8.009497869018190385759 1278.12434033471367911 8.009497869018190385759 155.52709867526201037
9.009497869018204596614 1294.36977396708903143 9.009497869018204596614 145.35389236710827277
10.009497869018190385759 1307.91852643583933968 10.009497869018190385759 138.09610438899071028
11.009497869018190385759 1319.49980858055596400 11.009497869018190385759 132.20900444848408029
12.009497869018190385759 1329.59140127542900700 12.009497869018190385759 127.72010379617660192
13.009497869018190385759 1338.51984509678140967 13.009497869018190385759 124.22461668334852902
14.009497869018204596614 1346.51621399109922095 14.009497869018204596614 121.44840567991360558
15.009497869018190385759 1353.74921461440339954 15.009497869018190385759 119.20168959377902240
16.009497869018190385759 1360.34544636851137511 16.009497869018190385759 117.35160557504694623
17.009497869018190385759 1366.40225998464438817 17.009497869018190385759 115.83867787091553225
18.009497869018190385759 1371.99610185733695289 18.009497869018190385759 114.51407252258343306
19.009497869018204596614 1377.18790728515045885 19.009497869018204596614 113.41849476853670353
20.009497869018190385759 1382.02728529035562133 20.009497869018190385759 112.41362517536946086
21.009497869018204596614 1386.55522140512744045 21.009497869018204596614 111.52842576502929717
22.009497869018190385759 1390.80570524966788071 22.009497869018190385759 110.74032124095893437
23.009497869018190385759 1394.80750652961296510 23.009497869018190385759 110.04416573893995235
24.009497869018190385759 1398.58516530654128474 24.009497869018190385759 109.39914259888165304
25.009497869018190385759 1402.15962866729000780 25.009497869018190385759 108.80960210894366469
26.009497869018204596614 1405.54921393999870816 26.009497869018204596614 108.27884865783993007
27.009497869018190385759 1408.76969217505552479 27.009497869018190385759 107.77319856739013915
28.009497869018190385759 1411.83507682480853873 28.009497869018190385759 107.30164950991060380
29.009497869018190385759 1414.75757454007066372 29.009497869018190385759 106.86287866657582413
30.009497869018190385759 1417.54814271360805833 30.009497869018190385759 106.44519630419019052
31.009497869018190385759 1420.21645357258466902 31.009497869018190385759 106.04984015187285706
32.009497869018190385759 1422.77121575565797684 32.009497869018190385759 105.67357195629432454
33.009497869018190385759 1425.22024797786616546 33.009497869018190385759 105.31635103259939967
34.009497869018190385759 1427.57057269765823548 34.009497869018190385759 104.97110842336681458
35.009497869018190385759 1429.82860959861613992 35.009497869018190385759 104.63799594261321602
36.009497869018190385759 1432.00012371722777971 36.009497869018190385759 104.31716763067734632
37.009497869018190385759 1434.09040116505570950 37.009497869018190385759 104.00674283412168108
38.009497869018190385759 1436.10427570016622667 38.009497869018190385759 103.70556746087703459
39.009497869018190385759 1438.04614554929548831 39.009497869018190385759 103.41042403628043189
40.009497869018190385759 1439.92007391524157356 40.009497869018190385759 103.11917158357961455
41.009497869018190385759 1441.72980237781484902 41.009497869018190385759 102.84279009573739927
42.009497869018190385759 1443.47876548797444229 42.009497869018190385759 102.56622784787764147
43.009497869018190385759 1445.17015024521060695 43.009497869018190385759 102.30177459604807666
44.009497869018218807469 1446.80691310498241364 44.009497869018218807469 102.03541344382266232
46.009497869018190385759 1449.92732031702871609 46.009497869018190385759 101.51848103452508099
48.009497869018190385759 1452.85969509644974096 48.009497869018190385759 101.02107314489781231
50.009497869018190385759 1455.62118673231179855 50.009497869018190385759 100.52865081653534673
52.009497869018190385759 1458.22679317461802384 52.009497869018190385759 100.05017575221549464
54.009497869018190385759 1460.68975300618490110 54.009497869018190385759 99.58796131246259620
56.009497869018190385759 1463.02173564150780294 56.009497869018190385759 99.13502027271223938
58.009497869018218807469 1465.23317525437914810 58.009497869018218807469 98.66934621875938660
60.009497869018190385759 1467.33332161361840917 60.009497869018190385759 98.23400412627700007
62.009497869018190385759 1469.33053555104856969 62.009497869018190385759 97.80644384798456770
64.009497869018190385759 1471.23228476096437589 64.009497869018190385759 97.38622565186174995
66.009497869018190385759 1473.04533932231106519 66.009497869018190385759 96.96619619200771467
68.009497869018190385759 1474.77584715491889256 68.009497869018190385759 96.54918371931950105
70.009497869018190385759 1476.42931730396071544 70.009497869018190385759 96.15235105521972514
72.009497869018218807469 1478.01087188659312233 72.009497869018218807469 95.75615985350805204
74.009497869018190385759 1479.52511928743842873 74.009497869018190385759 95.37167170688540807
76.009497869018190385759 1480.97627595304970782 76.009497869018190385759 94.99521297923206475
78.009497869018190385759 1482.36827245546692211 78.009497869018190385759 94.62395117591923110
80.009497869018190385759 1483.70465310290569505 80.009497869018190385759 94.26311232063918055
82.009497869018218807469 1484.98869548296147514 82.009497869018218807469 93.91153604060619386
84.009497869018190385759 1486.22347586394380414 84.009497869018190385759 93.57192610083401973
86.009497869018190385759 1487.41177376565519808 86.009497869018190385759 93.23362250674442464
88.009497869018190385759 1488.55616481950823982 88.009497869018190385759 92.90897620985242611
91.009497869018218807469 1490.19574541754855090 91.009497869018218807469 92.43339661050960387
94.009497869018190385759 1491.74940752494603657 94.009497869018190385759 91.97657025519154672
97.009497869018190385759 1493.22382803243226590 97.009497869018190385759 91.53503658827123957
99.504748934509109403734 1494.39417329956654612 99.504748934509109403734 91.25182246847680290
nan nan nan nan

