Time Pressure difference Time.1 Pressure.1 difference.1
(hr) (psi) (hr) (psi)
0.000200000000006639311 0.67330683389587298 0.000200000000006639311 0.53673613121159114
0.000399999999999067768 1.34623233276020482 0.000399999999999067768 1.40492203151093142
0.000600000000005707079 2.01883465128872386 0.000600000000005707079 2.05553977491593409
0.000799999999998135536 2.69114164524036159 0.000799999999998135536 2.71789778659925885
0.001007140329434719206 3.38715355866174583 0.001007140329434719206 3.41321676873109459
0.001267914553963578328 4.26296966580831960 0.001267914553963578328 4.29474481818812936
0.001596209851982166583 5.36493067615861463 0.001596209851982166583 5.40334832975069723
0.002009509145210586212 6.75126240900519026 0.002009509145210586212 6.79720182302232434
0.002529822128138903281 8.49509267480536678 0.002529822128138903281 8.54921212745447967
0.003184857364445292660 10.68821698016739674 0.003184857364445292660 10.75065630497916125
0.004009497869020606231 13.44578963702125485 0.004009497869020606231 13.51566701012998450
0.005047658755842121536 16.91215332364822643 0.005047658755842121536 16.98673428970716159
0.006354625877804664924 21.26806114321880870 0.006354625877804664924 21.34140991916115837
0.008000000000009777068 26.73958936610110015 0.008000000000009777068 26.80040808420293530
0.010071403294347192059 33.60908327614371416 0.010071403294347192059 33.63728522298517021
0.012679145539692626699 42.22851713471997215 0.012679145539692626699 42.18983725991698464
0.015962098519750611558 53.03567224211727194 0.015962098519750611558 52.87325121293999786
0.020095091452091651263 66.57352792885018289 0.020095091452091651263 66.19485548626393268
0.025298221281346400247 83.51319287771423205 0.025298221281346400247 82.76997829279105190
0.031848573644282396344 104.68053837356494284 0.031848573644282396344 103.33787511672680637
0.040094978690191851456 131.08637151423073419 0.040094978690191851456 128.77582780317789002
0.050476587558421215363 163.95942043241845454 0.050476587558421215363 160.10822837754099623
0.063546258777947173257 204.78047963333526127 0.063546258777947173257 198.50560067539009879
0.079999999999998294697 255.31463283178987922 0.079999999999998294697 245.26594722351524069
0.100714032943542974863 317.63635621095312445 0.100714032943542974863 301.76745520244628551
0.126791455396897845276 394.13932247108078855 0.126791455396897845276 369.37751694225937626
0.159620985197506115583 487.51873310779069470 0.159620985197506115583 449.29860177523249831
0.200950914520774404082 600.70900701542814204 0.200950914520774404082 542.32781639536869989
0.252982212813464002465 736.75401370789256816 0.252982212813464002465 648.50648026219585063
0.318485736442795541734 898.58193397979289330 0.318485736442795541734 766.64402083734137250
0.400949786901819038576 1088.65511200762307453 0.400949786901819038576 893.72715091753707384
0.504765875584169521062 1308.47284005759411230 0.504765875584169521062 1024.28659803609843948
0.635462587779443310865 1557.93207813599155998 0.635462587779443310865 1149.90516718375306482
0.799999999999997157829 1834.61052121121588243 0.799999999999997157829 1259.20470734077071029
1.007140329435330272645 2133.13415141930772734 1.007140329435330272645 1338.77215646581294095
1.267914553968893187630 2444.90550293541309657 1.267914553968893187630 1375.40885376210758295
1.596209851975103788391 2758.52732922328459608 1.596209851975103788391 1359.61843872769463815
2.009509145207687197399 3061.14849278526071430 2.009509145207687197399 1289.38901451460401404
2.529822128134711078928 3340.61766870398287210 2.529822128134711078928 1172.52220778699575021
3.184857364427983839050 3587.85769166852378476 3.184857364427983839050 1025.80722005902907767
4.009497869018190385759 3798.57001563024732604 4.009497869018190385759 870.60322158725750796
5.009497869018190385759 3968.30997028924639380 5.009497869018190385759 730.47018768339739836
6.009497869018190385759 4085.11002942482537037 6.009497869018190385759 632.17430555751070642
7.009497869018204596614 4171.05500002230201062 7.009497869018204596614 563.79081381187813804
8.009497869018190385759 4237.71553824091461138 8.009497869018190385759 515.66156896838924695
9.009497869018204596614 4291.57847188268442551 9.009497869018204596614 481.93155297127293579
10.009497869018190385759 4336.50036019096023665 10.009497869018190385759 457.86782151923551965
11.009497869018190385759 4374.89895549864741042 11.009497869018190385759 438.34870737222797743
12.009497869018190385759 4408.35837554025511054 12.009497869018190385759 423.46542611109373411
13.009497869018190385759 4437.96128968563971284 13.009497869018190385759 411.87588072470890665
14.009497869018204596614 4464.47384065081678273 14.009497869018204596614 402.67114834036931370
15.009497869018190385759 4488.45538779939488450 15.009497869018190385759 395.22199541543949408
16.009497869018190385759 4510.32568078740041528 16.009497869018190385759 389.08790536972531982
17.009497869018190385759 4530.40749314580898499 17.009497869018190385759 384.07168195725682835
18.009497869018190385759 4548.95428853518660617 18.009497869018190385759 379.67985520807371813
19.009497869018204596614 4566.16810243314284889 19.009497869018204596614 376.04738634322211510
20.009497869018190385759 4582.21341721269527625 20.009497869018190385759 372.71566707735206592
21.009497869018204596614 4597.22612342929460283 21.009497869018204596614 369.78072313077336730
22.009497869018190385759 4611.31891617615383439 22.009497869018190385759 367.16770444235976356
23.009497869018190385759 4624.58718353465883411 23.009497869018190385759 364.85954951968204796
24.009497869018190385759 4637.11228988931088679 24.009497869018190385759 362.72092771514445531
25.009497869018190385759 4648.96368685179368185 25.009497869018190385759 360.76626273006320389
26.009497869018204596614 4660.20210687483177026 26.009497869018204596614 359.00651050898568428
27.009497869018190385759 4670.87984003942528943 27.009497869018190385759 357.32999033204350781
28.009497869018190385759 4681.04334898061460990 28.009497869018190385759 355.76653464556420658
29.009497869018190385759 4690.73310574966126296 29.009497869018190385759 354.31175754614685047
30.009497869018190385759 4699.98544039061016520 30.009497869018190385759 352.92690086102402347
31.009497869018190385759 4708.83242188615167834 31.009497869018190385759 351.61606837239810375
32.009497869018190385759 4717.30292437019397767 32.009497869018190385759 350.36852341246770948
33.009497869018190385759 4725.42287136923732760 33.009497869018190385759 349.18413108759392571
34.009497869018190385759 4733.21554636231758195 34.009497869018190385759 348.03945374796626311
35.009497869018190385759 4740.70223428393637732 35.009497869018190385759 346.93499474415614259
36.009497869018190385759 4747.90204953785723774 36.009497869018190385759 345.87126480827038222
37.009497869018190385759 4754.83251861692679086 37.009497869018190385759 344.84202849510018041
38.009497869018190385759 4761.50966820259964152 38.009497869018190385759 343.84345932725210560
39.009497869018190385759 4767.94808094008203625 39.009497869018190385759 342.86488953012656111
40.009497869018190385759 4774.16122867799367668 40.009497869018190385759 341.89922053736029284
41.009497869018190385759 4780.16151690021433751 41.009497869018190385759 340.98285732562112571
42.009497869018190385759 4785.96033311381688691 42.009497869018190385759 340.06589479070908055
43.009497869018190385759 4791.56824405071802175 43.009497869018190385759 339.18908052542172982
44.009497869018218807469 4796.99505205709374422 44.009497869018218807469 338.30594047562510696
46.009497869018190385759 4807.34099236260772159 46.009497869018190385759 336.59201293824094137
48.009497869018190385759 4817.06349726650751109 48.009497869018190385759 334.94282038615710917
50.009497869018190385759 4826.21942650180335477 50.009497869018190385759 333.31015783023400445
52.009497869018190385759 4834.85850687813945115 52.009497869018190385759 331.72373845714076879
54.009497869018190385759 4843.02463189345689898 54.009497869018190385759 330.19123238435349776
56.009497869018190385759 4850.75649235237597168 56.009497869018190385759 328.68947295337784453
58.009497869018218807469 4858.08868352783883893 58.009497869018218807469 327.14549627449315494
60.009497869018190385759 4865.05187371072679525 60.009497869018190385759 325.70208745146760521
62.009497869018190385759 4871.67378385573101696 62.009497869018190385759 324.28447980745698942
64.009497869018190385759 4877.97917365418106783 64.009497869018190385759 322.89121537850883215
66.009497869018190385759 4883.99048980225325067 66.009497869018190385759 321.49857671858296726
68.009497869018190385759 4889.72811618167725101 68.009497869018190385759 320.11594110217004072
70.009497869018190385759 4895.21031843813216256 70.009497869018190385759 318.80021312980636594
72.009497869018218807469 4900.45407932890884695 72.009497869018218807469 317.48661197331148287
74.009497869018190385759 4905.47467829318702570 74.009497869018190385759 316.21181315930448363
76.009497869018190385759 4910.28609527056232764 76.009497869018190385759 314.96363647622433746
78.009497869018190385759 4914.90136236259240832 78.009497869018190385759 313.73269057917485725
80.009497869018190385759 4919.33223098463349743 80.009497869018190385759 312.53630273523401684
82.009497869018218807469 4923.58956822014715726 82.009497869018218807469 311.37062564282956600
84.009497869018190385759 4927.68357366364944028 84.009497869018190385759 310.24462383432268098
86.009497869018190385759 4931.62346301809429860 86.009497869018190385759 309.12295331129610076
88.009497869018190385759 4935.41777597943473666 88.009497869018190385759 308.04656456463368386
91.009497869018218807469 4940.85392640490499616 91.009497869018218807469 306.46974531927156704
94.009497869018190385759 4946.00520773639891559 94.009497869018190385759 304.95510383790968945
97.009497869018190385759 4950.89375769769594626 97.009497869018190385759 303.49116639307965215
99.504748934509109403734 4954.77412376782467618 99.504748934509109403734 302.55214908605626078
nan nan nan nan

