Time Pressure difference Time.1 Pressure.1 difference.1
(hr) (psi) (hr) (psi)
0.000200000000006639311 0.20973216581181703 0.000200000000006639311 0.16719098277542768
0.000399999999999067768 0.41934554741108976 0.000399999999999067768 0.43762713466100711
0.000600000000005707079 0.62885825973394105 0.000600000000005707079 0.64029174694538382
0.000799999999998135536 0.83827897972876519 0.000799999999998135536 0.84661340200619672
0.001007140329434719206 1.05508367958313953 0.001007140329434719206 1.06320225676172542
0.001267914553963578328 1.32789660789084851 0.001267914553963578328 1.33779443038740253
0.001596209851982166583 1.67115269516930876 0.001596209851982166583 1.68311962805584137
0.002009509145210586212 2.10298903222411360 0.002009509145210586212 2.11729896094144054
0.002529822128138903281 2.64618461563776552 0.002529822128138903281 2.66304259099941687
0.003184857364445292660 3.32933334858119157 0.003184857364445292660 3.34878292812700762
0.004009497869020606231 4.18830530102516274 0.004009497869020606231 4.21007180043603935
0.005047658755842121536 5.26806259278041100 0.005047658755842121536 5.29129424104598822
0.006354625877804664924 6.62490903348719407 0.006354625877804664924 6.64775685986231402
0.008000000000009777068 8.32926640328489221 0.008000000000009777068 8.34821117085184206
0.010071403294347192059 10.46908403657381292 0.010071403294347192059 10.47786882100403183
0.012679145539692626699 13.15400039301536950 0.012679145539692626699 13.14195177935609493
0.015962098519750611558 16.52038245366322755 0.015962098519750611558 16.46978900576128524
0.020095091452091651263 20.73736593086556823 0.020095091452091651263 20.61941110326144866
0.025298221281346400247 26.01399827587637503 0.025298221281346400247 25.78249014806346651
0.031848573644282396344 32.60753482093741695 0.031848573644282396344 32.18930102523504644
0.040094978690191851456 40.83283760393837980 0.040094978690191851456 40.11311323411720764
0.050476587558421215363 51.07265012233553136 0.050476587558421215363 49.87302045876431578
0.063546258777947173257 63.78823345809701095 0.063546258777947173257 61.83363580988665831
0.079999999999998294697 79.52940355205321055 0.079999999999998294697 76.39928145899362733
0.100714032943542974863 98.94235076039578303 0.100714032943542974863 93.99925675032937988
0.126791455396897845276 122.77269377343925782 0.126791455396897845276 115.05949847892381399
0.159620985197506115583 151.85997619674071757 0.159620985197506115583 139.95457063950382803
0.200950914520774404082 187.11825682062780629 0.200950914520774404082 168.93276851870569999
0.252982212813464002465 229.49568782989979354 0.252982212813464002465 202.00696294941081987
0.318485736442795541734 279.90438487380447441 0.318485736442795541734 238.80629573672436550
0.400949786901819038576 339.11135751040922059 0.400949786901819038576 278.39214095329958809
0.504765875584169521062 407.58362879420729996 0.504765875584169521062 319.06084388763514426
0.635462587779443310865 485.28910221294177063 0.635462587779443310865 358.19048470989582711
0.799999999999997157829 571.47324022895713824 0.799999999999997157829 392.23681860305833879
1.007140329435330272645 664.46205952739876466 1.007140329435330272645 417.02173477056226147
1.267914553968893187630 761.57748669928810159 1.267914553968893187630 428.43390747595935864
1.596209851975103788391 859.26932875682052781 1.596209851975103788391 423.51526150726709830
2.009509145207687197399 953.53451196772027743 2.009509145207687197399 401.63909970047001252
2.529822128134711078928 1040.58795119085743863 2.529822128134711078928 365.23559500905179220
3.184857364427983839050 1117.60214870267964216 3.184857364427983839050 319.53451106906715040
4.009497869018190385759 1183.23812600596079392 4.009497869018190385759 271.18913700863890881
5.009497869018190385759 1236.11138753138448010 5.009497869018190385759 227.53830320916702590
6.009497869018190385759 1272.49410063665777670 6.009497869018190385759 196.91956118725920533
7.009497869018204596614 1299.26558715157011648 7.009497869018204596614 175.61839935796447776
8.009497869018190385759 1320.03005641126151204 8.009497869018190385759 160.62634781215587054
9.009497869018204596614 1336.80812721191159653 9.009497869018204596614 150.11959375619377965
10.009497869018190385759 1350.80110107308018996 10.009497869018190385759 142.62384551649859077
11.009497869018190385759 1362.76209738647571612 11.009497869018190385759 136.54372590581141367
12.009497869018190385759 1373.18456197298405641 12.009497869018190385759 131.90764818293646954
13.009497869018190385759 1382.40574165733164591 13.009497869018190385759 128.29755493526161558
14.009497869018204596614 1390.66428658097129301 14.009497869018204596614 125.43032062023864626
15.009497869018190385759 1398.13443476569545965 15.009497869018190385759 123.10994171160784560
16.009497869018190385759 1404.94693641338062662 16.009497869018190385759 121.19919920045830963
17.009497869018190385759 1411.20233408250146567 17.009497869018190385759 119.63666730930620474
18.009497869018190385759 1416.97958060675773595 18.009497869018190385759 118.26863227742222762
19.009497869018204596614 1422.34160916335235925 19.009497869018204596614 117.13713394127560719
20.009497869018190385759 1427.33965529987540322 20.009497869018190385759 116.09931780407009683
21.009497869018204596614 1432.01604833644296377 21.009497869018204596614 115.18509546224336759
22.009497869018190385759 1436.40589230703403700 22.009497869018190385759 114.37115144558053714
23.009497869018190385759 1440.53890018632182546 23.009497869018190385759 113.65217117300355198
24.009497869018190385759 1444.44041662806739623 24.009497869018190385759 112.98599973327121404
25.009497869018190385759 1448.13207550884067132 25.009497869018190385759 112.37713004694180086
26.009497869018204596614 1451.63279472491672095 26.009497869018204596614 111.82897484334287697
27.009497869018190385759 1454.95886241030325436 27.009497869018190385759 111.30674606140291871
28.009497869018190385759 1458.12475147480199666 28.009497869018190385759 110.81973637908799901
29.009497869018190385759 1461.14306878728621086 29.009497869018190385759 110.36657960646354582
30.009497869018190385759 1464.02513099930024509 30.009497869018190385759 109.93520274039315154
31.009497869018190385759 1466.78092746021047788 31.009497869018190385759 109.52688409127853220
32.009497869018190385759 1469.41945233781075331 32.009497869018190385759 109.13827923354988059
33.009497869018190385759 1471.94878069845208302 33.009497869018190385759 108.76934614842232918
34.009497869018190385759 1474.37616524512236538 34.009497869018190385759 108.41278410937884757
35.009497869018190385759 1476.70823614283290226 35.009497869018190385759 108.06874990794480595
36.009497869018190385759 1478.95094744566131340 36.009497869018190385759 107.73740263496186742
37.009497869018190385759 1481.10975858030337804 37.009497869018190385759 107.41679997622402709
38.009497869018190385759 1483.18966178869618489 38.009497869018190385759 107.10575000057791328
39.009497869018190385759 1485.19519950173162215 39.009497869018190385759 106.80092974238799286
40.009497869018190385759 1487.13056814197079802 40.009497869018190385759 106.50012802894288200
41.009497869018190385759 1488.99963196397266074 41.009497869018190385759 106.21468485297468476
42.009497869018190385759 1490.80593812692450228 42.009497869018190385759 105.92905499043099837
43.009497869018190385759 1492.55277812210283628 43.009497869018190385759 105.65593114018079746
44.009497869018218807469 1494.24320533793274990 44.009497869018218807469 105.38083683542339486
46.009497869018190385759 1497.46592098316091324 46.009497869018190385759 104.84695582254231283
48.009497869018190385759 1500.49443919797249691 48.009497869018190385759 104.33323947751740945
50.009497869018190385759 1503.34647154320714435 50.009497869018190385759 103.82467215478241940
52.009497869018190385759 1506.03750770493343225 52.009497869018190385759 103.33050938343568248
54.009497869018190385759 1508.58122031786297157 54.009497869018190385759 102.85314037188760494
56.009497869018190385759 1510.98966140024595006 56.009497869018190385759 102.38534880624379753
58.009497869018218807469 1513.27360722993239506 58.009497869018218807469 101.90440675052198571
60.009497869018190385759 1515.44261084685172136 60.009497869018190385759 101.45479114681067756
62.009497869018190385759 1517.50530720845995347 62.009497869018190385759 101.01321249873815589
64.009497869018190385759 1519.46940885148774214 64.009497869018190385759 100.57921665684082768
66.009497869018190385759 1521.34190782468203906 66.009497869018190385759 100.14541573928664775
68.009497869018190385759 1523.12915361901468714 68.009497869018190385759 99.71473072651031089
70.009497869018190385759 1524.83683590409054887 70.009497869018190385759 99.30488715539085831
72.009497869018218807469 1526.47024473533383571 72.009497869018218807469 98.89570607821322312
74.009497869018190385759 1528.03413959194472227 74.009497869018190385759 98.49861176284885289
76.009497869018190385759 1529.53287516462501117 76.009497869018190385759 98.10981012609212826
78.009497869018190385759 1530.97051089662977574 78.009497869018190385759 97.72637580463789675
80.009497869018190385759 1532.35070730300094510 80.009497869018190385759 97.35370616721752413
82.009497869018218807469 1533.67684943322251456 82.009497869018218807469 96.99060279603591539
84.009497869018190385759 1534.95211441686001308 84.009497869018190385759 96.63985810414007460
86.009497869018190385759 1536.17937290551276419 86.009497869018190385759 96.29046258893276899
88.009497869018190385759 1537.36128497752497424 88.009497869018190385759 95.95517215115907561
91.009497869018218807469 1539.05462231648471061 91.009497869018218807469 95.46399977806727577
94.009497869018190385759 1540.65922416510807125 94.009497869018190385759 94.99219550946013157
97.009497869018190385759 1542.18198632857775010 97.009497869018190385759 94.53618532887030312
99.504748934509109403734 1543.39070357168338887 99.504748934509109403734 94.24368550023014279
nan nan nan nan

