Time Pressure difference Time.1 Pressure.1 difference.1
(hr) (psi) (hr) (psi)
0.000200000000006639311 0.26050066626626484 0.000200000000006639311 0.20766181590757485
0.000399999999999067768 0.52085379499869477 0.000399999999999067768 0.54356068709879057
0.000600000000005707079 0.78108188609810936 0.000600000000005707079 0.79528300315041722
0.000799999999998135536 1.04119571688533141 0.000799999999998135536 1.05154759852356983
0.001007140329434719206 1.31048091948223289 0.001007140329434719206 1.32056470780325430
0.001267914553963578328 1.64933189789617285 0.001267914553963578328 1.66162562187006735
0.001596209851982166583 2.07567775233330787 0.001596209851982166583 2.09054144278364440
0.002009509145210586212 2.61204590113550639 0.002009509145210586212 2.62981974116932937
0.002529822128138903281 3.28672930434373267 0.002529822128138903281 3.30766798009054597
0.003184857364445292660 4.13524340518219446 0.003184857364445292660 4.15940101787203620
0.004009497869020606231 5.20214110801934826 0.004009497869020606231 5.22917648228762033
0.005047658755842121536 6.54326822039789047 0.005047658755842121536 6.57212340256902472
0.006354625877804664924 8.22855764873607853 0.006354625877804664924 8.25693609974962150
0.008000000000009777068 10.34547771519115500 0.008000000000009777068 10.36900831935169442
0.010071403294347192059 13.00326707717302988 0.010071403294347192059 13.01417833719945349
0.012679145539692626699 16.33810366275321613 0.012679145539692626699 16.32313851959705531
0.015962098519750611558 20.51936392062139092 0.015962098519750611558 20.45652364604477214
0.020095091452091651263 25.75712514428937538 0.020095091452091651263 25.61061775920965289
0.025298221281346400247 32.31103754106867143 0.025298221281346400247 32.02348974739629028
0.031848573644282396344 40.50062856727543448 0.031848573644282396344 39.98115563848639198
0.040094978690191851456 50.71697686520916903 0.040094978690191851456 49.82303350110590401
0.050476587558421215363 63.43547415988501115 0.050476587558421215363 61.94545795076678729
0.063546258777947173257 79.22903600152525883 0.063546258777947173257 76.80130162101001190
0.079999999999998294697 98.78056869758989933 0.079999999999998294697 94.89275832009921885
0.100714032943542974863 122.89268169842807765 0.100714032943542974863 116.75304509068688219
0.126791455396897845276 152.49148075827972093 0.126791455396897845276 142.91120247580616365
0.159620985197506115583 188.61973233960256380 0.159620985197506115583 173.83246273874880217
0.200950914520774404082 232.41275549546230650 0.200950914520774404082 209.82522439029716566
0.252982212813464002465 285.04821543951840113 0.252982212813464002465 250.90547382208563931
0.318485736442795541734 347.65901772024130878 0.318485736442795541734 296.61258160950291085
0.400949786901819038576 421.19783690777018137 0.400949786901819038576 345.78071475548716762
0.504765875584169521062 506.24474528804324791 0.504765875584169521062 396.29382593980079719
0.635462587779443310865 602.75987695496337437 0.635462587779443310865 444.89532426268806375
0.799999999999997157829 709.80604837961743669 0.799999999999997157829 487.18303262998909986
1.007140329435330272645 825.30406600030084974 1.007140329435330272645 517.96747215549999055
1.267914553968893187630 945.92759260665559395 1.267914553968893187630 532.14211523799713177
1.596209851975103788391 1067.26706309874930412 1.596209851975103788391 526.03284464989917524
2.009509145207687197399 1184.35040573768446848 2.009509145207687197399 498.86126272320279895
2.529822128134711078928 1292.47630445531103760 2.529822128134711078928 453.64579856283017989
3.184857364427983839050 1388.13282755531258772 3.184857364427983839050 396.88215065324612851
4.009497869018190385759 1469.65687872962598703 4.009497869018190385759 336.83412652263484688
5.009497869018190385759 1535.32882657668005777 5.009497869018190385759 282.61701946217965542
6.009497869018190385759 1580.51846626695964915 6.009497869018190385759 244.58659782385765880
7.009497869018204596614 1613.77035229540229011 7.009497869018204596614 218.12920237715431426
8.009497869018190385759 1639.56114149494010235 8.009497869018190385759 199.50812248097136603
9.009497869018204596614 1660.40057070368379755 9.009497869018204596614 186.45806684797085495
10.009497869018190385759 1677.78073268203979751 10.009497869018190385759 177.14787161374627544
11.009497869018190385759 1692.63704953161482081 11.009497869018190385759 169.59597701793245506
12.009497869018190385759 1705.58241229184136500 12.009497869018190385759 163.83767413198063423
13.009497869018190385759 1717.03570293152688464 13.009497869018190385759 159.35370910609876205
14.009497869018204596614 1727.29334007874626877 14.009497869018204596614 155.79242204021704765
15.009497869018190385759 1736.57173841929625269 15.009497869018190385759 152.91036411005259765
16.009497869018190385759 1745.03329800550841355 16.009497869018190385759 150.53710059422004974
17.009497869018190385759 1752.80289907866267640 17.009497869018190385759 148.59633677703507715
18.009497869018190385759 1759.97860607109214470 18.009497869018190385759 146.89715040806808588
19.009497869018204596614 1766.63858598463980343 19.009497869018204596614 145.49175763340977596
20.009497869018190385759 1772.84647662246425170 20.009497869018190385759 144.20272409791246560
21.009497869018204596614 1778.65485368772465335 21.009497869018204596614 143.06720190350071675
22.009497869018190385759 1784.10731861945123455 22.009497869018190385759 142.05623175582027784
23.009497869018190385759 1789.24077681872495305 23.009497869018190385759 141.16321260773855784
24.009497869018190385759 1794.08670795470266057 24.009497869018190385759 140.33578538299161664
25.009497869018190385759 1798.67198267566323011 25.009497869018190385759 139.57953057417773834
26.009497869018204596614 1803.02009820991634115 26.009497869018204596614 138.89868700780289146
27.009497869018190385759 1807.15128545406719240 27.009497869018190385759 138.25004570325046416
28.009497869018190385759 1811.08352068100430188 28.009497869018190385759 137.64514875656564641
29.009497869018190385759 1814.83246242230393364 29.009497869018190385759 137.08229927310750895
30.009497869018190385759 1818.41216667770208915 30.009497869018190385759 136.54650181644069562
31.009497869018190385759 1821.83504085335675882 31.009497869018190385759 136.03934412924675712
32.009497869018190385759 1825.11225627672524752 32.009497869018190385759 135.55667222262346172
33.009497869018190385759 1828.25384269291862438 33.009497869018190385759 135.09843390657218265
34.009497869018190385759 1831.26880841953675372 34.009497869018190385759 134.65556121522055832
35.009497869018190385759 1834.16538854248710777 35.009497869018190385759 134.22824889359807798
36.009497869018190385759 1836.95097837496837201 36.009497869018190385759 133.81669454263121111
37.009497869018190385759 1839.63235887156724857 37.009497869018190385759 133.41848568475447223
38.009497869018190385759 1842.21573071373768471 38.009497869018190385759 133.03214186579717193
39.009497869018190385759 1844.70673588905538054 39.009497869018190385759 132.65353575145809373
40.009497869018190385759 1847.11058662078107773 40.009497869018190385759 132.27992092483776787
41.009497869018190385759 1849.43208255842637300 41.009497869018190385759 131.92538237690905589
42.009497869018190385759 1851.67562949891816970 42.009497869018190385759 131.57061195240041229
43.009497869018190385759 1853.84531568340548802 43.009497869018190385759 131.23137478919281307
44.009497869018218807469 1855.94493361417835331 44.009497869018218807469 130.88969019637906399
46.009497869018190385759 1859.94775106241809226 46.009497869018190385759 130.22657608117356176
48.009497869018190385759 1863.70936297208504584 48.009497869018190385759 129.58850776374183056
50.009497869018190385759 1867.25176822628509399 50.009497869018190385759 128.95683485891623832
52.009497869018190385759 1870.59420599858799505 52.009497869018190385759 128.34305332148954903
54.009497869018190385759 1873.75365856940925369 54.009497869018190385759 127.75013070000325399
56.009497869018190385759 1876.74509531062267342 56.009497869018190385759 127.16910387442185026
58.009497869018218807469 1879.58190104352729577 58.009497869018218807469 126.57174330521181105
60.009497869018190385759 1882.27594125025643734 60.009497869018190385759 126.01329217837992758
62.009497869018190385759 1884.83794109622203905 62.009497869018190385759 125.46482346073429426
64.009497869018190385759 1887.27748004172894980 64.009497869018190385759 124.92577306980625451
66.009497869018190385759 1889.60324265525991905 66.009497869018190385759 124.38696478728859063
68.009497869018190385759 1891.82311540774435343 68.009497869018190385759 123.85202665634020036
70.009497869018190385759 1893.94416523008067088 70.009497869018190385759 123.34297491919576828
72.009497869018218807469 1895.97296270698211629 72.009497869018218807469 122.83474604159022192
74.009497869018190385759 1897.91541941380410208 74.009497869018190385759 122.34152968957022267
76.009497869018190385759 1899.77694415288760865 76.009497869018190385759 121.85861337090014445
78.009497869018190385759 1901.56257901049639258 78.009497869018190385759 121.38236359861771518
80.009497869018190385759 1903.27687057872731202 80.009497869018190385759 120.91948424737731216
82.009497869018218807469 1904.92402330396294019 82.009497869018218807469 120.46848680618745675
84.009497869018190385759 1906.50798338284607780 84.009497869018190385759 120.03283962934857243
86.009497869018190385759 1908.03231634692656371 86.009497869018190385759 119.59886821561887871
88.009497869018190385759 1909.50032618240197735 88.009497869018190385759 119.18241620362216793
91.009497869018218807469 1911.60355867087196202 91.009497869018218807469 118.57234893069468740
94.009497869018190385759 1913.59657604634480776 94.009497869018190385759 117.98633807325802536
97.009497869018190385759 1915.48794333668570289 97.009497869018190385759 117.41994447593810946
99.504748934509109403734 1916.98924689657496856 99.504748934509109403734 117.05664111734935773
nan nan nan nan

