Time Pressure difference Time.1 Pressure.1 difference.1
(hr) (psi) (hr) (psi)
0.000200000000006639311 0.07656888593129828 0.000200000000006639311 0.06103797783864819
0.000399999999999067768 0.15309440619769943 0.000399999999999067768 0.15976863646354225
0.000600000000005707079 0.22958317418858165 0.000600000000005707079 0.23375730444037821
0.000799999999998135536 0.30603835767875559 0.000799999999998135536 0.30908108327210360
0.001007140329434719206 0.38518927984781287 0.001007140329434719206 0.38815320484951882
0.001267914553963578328 0.48478765049983352 0.001267914553963578328 0.48840114125254380
0.001596209851982166583 0.61010336490308104 0.001596209851982166583 0.61447224516324372
0.002009509145210586212 0.76775790065324789 0.002009509145210586212 0.77298216034370071
0.002529822128138903281 0.96606739935981900 0.002529822128138903281 0.97222189830137462
0.003184857364445292660 1.21547090503757782 0.003184857364445292660 1.22257154518922495
0.004009497869020606231 1.52906384005680507 0.004009497869020606231 1.53701033984172852
0.005047658755842121536 1.92326094657062607 0.005047658755842121536 1.93174234196917038
0.006354625877804664924 2.41861758365405510 0.006354625877804664924 2.42695885360052754
0.008000000000009777068 3.04084329008813503 0.008000000000009777068 3.04775963380305370
0.010071403294347192059 3.82204655303488394 0.010071403294347192059 3.82525369655702763
0.012679145539692626699 4.80225411173576955 0.012679145539692626699 4.79785541151095529
0.015962098519750611558 6.03125073705165526 0.015962098519750611558 6.01278011321443717
0.020095091452091651263 7.57078438745885851 0.020095091452091651263 7.52772151388909982
0.025298221281346400247 9.49717397373264482 0.025298221281346400247 9.41265513341999593
0.031848573644282396344 11.90433810923111935 0.031848573644282396344 11.75164958064136655
0.040094978690191851456 14.90722642683464549 0.040094978690191851456 14.64446991086819061
0.050476587558421215363 18.64557067958281067 0.050476587558421215363 18.20761064367586357
0.063546258777947173257 23.28776777041636592 0.063546258777947173257 22.57418450202211346
0.079999999999998294697 29.03454415392418753 0.079999999999998294697 27.89180116756910266
0.100714032943542974863 36.12181059506512781 0.100714032943542974863 34.31718897234247123
0.126791455396897845276 44.82177709189052450 0.126791455396897845276 42.00584865103567722
0.159620985197506115583 55.44094369087359553 0.159620985197506115583 51.09452578902520514
0.200950914520774404082 68.31301439483237914 0.200950914520774404082 61.67386787190842767
0.252982212813464002465 83.78414000139198947 0.252982212813464002465 73.74857377518171120
0.318485736442795541734 102.18731511265877998 0.318485736442795541734 87.18325082451843855
0.400949786901819038576 123.80255909110177015 0.400949786901819038576 101.63522606231570933
0.504765875584169521062 148.80037241693284500 0.504765875584169521062 116.48253030818425202
0.635462587779443310865 177.16903731583587955 0.635462587779443310865 130.76795473535881342
0.799999999999997157829 208.63308770263517999 0.799999999999997157829 143.19756869635463659
1.007140329435330272645 242.58138681158999361 1.007140329435330272645 152.24603015433223163
1.267914553968893187630 278.03622530291471548 1.267914553968893187630 156.41237891979469055
1.596209851975103788391 313.70150097471224626 1.596209851975103788391 154.61668277249432890
2.009509145207687197399 348.11577421043756431 2.009509145207687197399 146.63014750969540501
2.529822128134711078928 379.89718852999556020 2.529822128134711078928 133.33997913028875359
3.184857364427983839050 408.01348285970846064 3.184857364427983839050 116.65545642204038757
4.009497869018190385759 431.97582377995394154 4.009497869018190385759 99.00555795553484018
5.009497869018190385759 451.27876052733085999 5.009497869018190385759 83.06953926683875977
6.009497869018190385759 464.56133832766863634 6.009497869018190385759 71.89126836995177428
7.009497869018204596614 474.33505562676367617 7.009497869018204596614 64.11465373386005240
8.009497869018190385759 481.91573488030189765 8.009497869018190385759 58.64136507427912193
9.009497869018204596614 488.04106231545978289 9.009497869018204596614 54.80556597448344291
10.009497869018190385759 493.14960832826739079 10.009497869018190385759 52.06902296634075356
11.009497869018190385759 497.51632126807851364 11.009497869018190385759 49.84929675926449733
12.009497869018190385759 501.32134802188312506 12.009497869018190385759 48.15676044773871212
13.009497869018190385759 504.68781044632737576 13.009497869018190385759 46.83878989700026807
14.009497869018204596614 507.70283478352916973 14.009497869018204596614 45.79202181373791802
15.009497869018190385759 510.43003173985709964 15.009497869018190385759 44.94489935503143130
16.009497869018190385759 512.91713551599605125 16.009497869018190385759 44.24732669223081416
17.009497869018190385759 515.20085212535775554 17.009497869018190385759 43.67687854149274784
18.009497869018190385759 517.31000561834014206 18.009497869018190385759 43.17743718064620850
19.009497869018204596614 519.26757159931912611 19.009497869018204596614 42.76435048649744886
20.009497869018190385759 521.09225510947828752 20.009497869018190385759 42.38546523005733491
21.009497869018204596614 522.79950971012999617 21.009497869018204596614 42.05170151796186673
22.009497869018190385759 524.40215115971079740 22.009497869018190385759 41.75454735314845323
23.009497869018190385759 525.91102705214916568 23.009497869018190385759 41.49206249173145977
24.009497869018190385759 527.33539019754846322 24.009497869018190385759 41.24885704547996568
25.009497869018190385759 528.68313867783069782 25.009497869018190385759 41.02657128697875066
26.009497869018204596614 529.96117902655691978 26.009497869018204596614 40.82645113328391062
27.009497869018190385759 531.17545770534877647 27.009497869018190385759 40.63579618114710001
28.009497869018190385759 532.33125847492772209 28.009497869018190385759 40.45799899554006629
29.009497869018190385759 533.43318384297754164 29.009497869018190385759 40.29256080870891310
30.009497869018190385759 534.48536528545878355 30.009497869018190385759 40.13507401633400207
31.009497869018190385759 535.49144970769600604 31.009497869018190385759 39.98600530316517876
32.009497869018190385759 536.45472069475624721 32.009497869018190385759 39.84413368843884484
33.009497869018190385759 537.37812628673646032 33.009497869018190385759 39.70944383196371064
34.009497869018190385759 538.26431429583828958 34.009497869018190385759 39.57927038913831552
35.009497869018190385759 539.11570525849469959 35.009497869018190385759 39.45367060131317771
36.009497869018190385759 539.93447287698745640 36.009497869018190385759 39.33270254927179366
37.009497869018190385759 540.72261027534887035 37.009497869018190385759 39.21565713417702881
38.009497869018190385759 541.48194001809542897 38.009497869018190385759 39.10209920656019733
39.009497869018190385759 542.21412045301303806 39.009497869018190385759 38.99081562023688008
40.009497869018190385759 542.92068360738608135 40.009497869018190385759 38.88099912167756145
41.009497869018190385759 543.60304024081540319 41.009497869018190385759 38.77678970822886129
42.009497869018190385759 544.26248534792478040 42.009497869018190385759 38.67251213936370391
43.009497869018190385759 544.90022058425972773 43.009497869018190385759 38.57280025752632469
44.009497869018218807469 545.51736067892784376 44.009497869018218807469 38.47236900340853794
46.009497869018190385759 546.69390766051901664 46.009497869018190385759 38.27746006219798147
48.009497869018190385759 547.79955716751385353 48.009497869018190385759 38.08991282512540266
50.009497869018190385759 548.84077532529784094 50.009497869018190385759 37.90424538984119351
52.009497869018190385759 549.82321709862651460 52.009497869018190385759 37.72383675903207489
54.009497869018190385759 550.75187408429917468 54.009497869018190385759 37.54955918338753662
56.009497869018190385759 551.63114622548664556 56.009497869018190385759 37.37877813561281215
58.009497869018218807469 552.46496771886427268 58.009497869018218807469 37.20319611526993242
60.009497869018190385759 553.25682618218399966 60.009497869018190385759 37.03905073613722720
62.009497869018190385759 554.00987406023136828 62.009497869018190385759 36.87783948366631392
64.009497869018190385759 554.72692704101928030 64.009497869018190385759 36.71939655725934415
66.009497869018190385759 555.41053777726483531 66.009497869018190385759 36.56102479370782277
68.009497869018190385759 556.06302433710061450 68.009497869018190385759 36.40379058269424206
70.009497869018190385759 556.68646390149342551 70.009497869018190385759 36.25416515196808831
72.009497869018218807469 557.28278776051865862 72.009497869018218807469 36.10478158410958827
74.009497869018190385759 557.85373350182101149 74.009497869018190385759 35.95981064357974333
76.009497869018190385759 558.40089093311712531 76.009497869018190385759 35.81786718889078003
78.009497869018190385759 558.92574207337270309 78.009497869018190385759 35.67788323026463360
80.009497869018190385759 559.42962330109560298 80.009497869018190385759 35.54182923565083740
82.009497869018218807469 559.91377042800183972 82.009497869018218807469 35.40926768744168385
84.009497869018190385759 560.37934335853617540 84.009497869018190385759 35.28121803801938938
86.009497869018190385759 560.82739010836178295 86.009497869018190385759 35.15366094516593165
88.009497869018190385759 561.25888181719165004 88.009497869018190385759 35.03125332502632716
91.009497869018218807469 561.87708433776424499 91.009497869018218807469 34.85193642691345417
94.009497869018190385759 562.46289136186487667 94.009497869018190385759 34.67969042408861924
97.009497869018190385759 563.01882040567113563 97.009497869018190385759 34.51321051688915276
99.504748934509109403734 563.46009812934471483 99.504748934509109403734 34.40642486516338749
nan nan nan nan

