Time Pressure difference Time.1 Pressure.1 difference.1
(hr) (psi) (hr) (psi)
0.000200000000006639311 0.21139670681032352 0.000200000000006639311 0.16851789533713740
0.000399999999999067768 0.42267368667625710 0.000399999999999067768 0.44110036588847534
0.000600000000005707079 0.63384919830325803 0.000600000000005707079 0.64537342747669635
0.000799999999998135536 0.84493198750439036 0.000799999999998135536 0.85333255599037294
0.001007140329434719206 1.06345735957983112 0.001007140329434719206 1.07164036991062805
0.001267914553963578328 1.33843546985823614 0.001267914553963578328 1.34841184650158818
0.001596209851982166583 1.68441581179763689 0.001596209851982166583 1.69647772034199895
0.002009509145210586212 2.11967942136874932 0.002009509145210586212 2.13410292094891263
0.002529822128138903281 2.66718608084123954 0.002529822128138903281 2.68417784965814255
0.003184857364445292660 3.35575662912548678 0.003184857364445292660 3.37536057041372972
0.004009497869020606231 4.22154581928726635 0.004009497869020606231 4.24348506869346842
0.005047658755842121536 5.30987261335803229 0.005047658755842121536 5.33328863978444812
0.006354625877804664924 6.67748767661010767 0.006354625877804664924 6.70051683494058636
0.008000000000009777068 8.39537169219985024 0.008000000000009777068 8.41446681506495153
0.010071403294347192059 10.55217200511805054 0.010071403294347192059 10.56102651005961945
0.012679145539692626699 13.25839722153136258 0.012679145539692626699 13.24625298395415918
0.015962098519750611558 16.65149660012087196 0.015962098519750611558 16.60050161691811965
0.020095091452091651263 20.90194820015815580 0.020095091452091651263 20.78305722312860127
0.025298221281346400247 26.22045857965317239 0.025298221281346400247 25.98711308574651113
0.031848573644282396344 32.86632477983373946 0.031848573644282396344 32.44477166829247494
0.040094978690191851456 41.15690774365216953 0.040094978690191851456 40.43147127565782739
0.050476587558421215363 51.47798861536993797 0.050476587558421215363 50.26883808145291965
0.063546258777947173257 64.29448927919303003 0.063546258777947173257 62.32437895123497640
0.079999999999998294697 80.16058929452981374 0.079999999999998294697 77.00562496263643197
0.100714032943542974863 99.72760751246241284 0.100714032943542974863 94.74528259755420834
0.126791455396897845276 123.74708023195861983 0.126791455396897845276 115.97266910177241073
0.159620985197506115583 153.06521410306407915 0.159620985197506115583 141.06532120013480380
0.200950914520774404082 188.60332235095026476 0.200950914520774404082 170.27350477679067353
0.252982212813464002465 231.31708217775613434 0.252982212813464002465 203.61019281408866277
0.318485736442795541734 282.12584824581881549 0.318485736442795541734 240.70158379812696126
0.400949786901819038576 341.80271749065053655 0.400949786901819038576 280.60160238943689137
0.504765875584169521062 410.81841949892321963 0.504765875584169521062 321.59307280737829160
0.635462587779443310865 489.14060302415549586 0.635462587779443310865 361.03326633457754724
0.799999999999997157829 576.00874213553618119 0.799999999999997157829 395.34980922689214822
1.007140329435330272645 669.73556793634634232 1.007140329435330272645 420.33143107826515461
1.267914553968893187630 767.62175246674291884 1.267914553968893187630 431.83417658291142516
1.596209851975103788391 866.08892660409685504 1.596209851975103788391 426.87649374145178172
2.009509145207687197399 961.10224618968641153 2.009509145207687197399 404.82671160285462975
2.529822128134711078928 1048.84658572411831301 2.529822128134711078928 368.13429020753630994
3.184857364427983839050 1126.47200702571694819 3.184857364427983839050 322.07049925215500252
4.009497869018190385759 1192.62890478378585613 4.009497869018190385759 273.34143174680269794
5.009497869018190385759 1245.92179536893536351 5.009497869018190385759 229.34416275844614574
6.009497869018190385759 1282.59326016551995053 6.009497869018190385759 198.48241484747555319
7.009497869018204596614 1309.57721879562996037 7.009497869018204596614 177.01219617826581043
8.009497869018190385759 1330.50648543039869764 8.009497869018190385759 161.90116009637932848
9.009497869018204596614 1347.41771552311729465 9.009497869018204596614 151.31101910346515638
10.009497869018190385759 1361.52174473239028885 10.009497869018190385759 143.75578079837555379
11.009497869018190385759 1373.57766958795582468 11.009497869018190385759 137.62740627014326833
12.009497869018190385759 1384.08285214737293245 12.009497869018190385759 132.95453427962647197
13.009497869018190385759 1393.37721579746903444 13.009497869018190385759 129.31578949823986591
14.009497869018204596614 1401.70130472843948155 14.009497869018204596614 126.42579935531989577
15.009497869018190385759 1409.23073980351841783 15.009497869018190385759 124.08700474106504430
16.009497869018190385759 1416.09730892459811002 16.009497869018190385759 122.16109760681116825
17.009497869018190385759 1422.40235260696590558 17.009497869018190385759 120.58616466890387642
18.009497869018190385759 1428.22545029411298856 18.009497869018190385759 119.20727221613192626
19.009497869018204596614 1433.63003463290260697 19.009497869018204596614 118.06679373446033310
20.009497869018190385759 1438.66774780225523500 20.009497869018190385759 117.02074096124526648
21.009497869018204596614 1443.38125506927167407 21.009497869018204596614 116.09926288654689586
22.009497869018190385759 1447.80593907137563292 22.009497869018190385759 115.27885899673594849
23.009497869018190385759 1451.97174860049881318 23.009497869018190385759 114.55417253151945545
24.009497869018190385759 1455.90422945844875358 24.009497869018190385759 113.88271401686859008
25.009497869018190385759 1459.62518721922810983 25.009497869018190385759 113.26901203144134911
26.009497869018204596614 1463.15368992114622415 26.009497869018204596614 112.71650638971863145
27.009497869018190385759 1466.50615496911518676 27.009497869018190385759 112.19013293490611716
28.009497869018190385759 1469.69717013730064537 28.009497869018190385759 111.69925809638235137
29.009497869018190385759 1472.73944234909004081 29.009497869018190385759 111.24250484143549045
30.009497869018190385759 1475.64437807072317810 30.009497869018190385759 110.80770434944388114
31.009497869018190385759 1478.42204593211681640 31.009497869018190385759 110.39614507612994032
32.009497869018190385759 1481.08151148334877689 32.009497869018190385759 110.00445605286377315
33.009497869018190385759 1483.63091387859844872 33.009497869018190385759 109.63259492737806511
34.009497869018190385759 1486.07756338198851154 34.009497869018190385759 109.27320303088185938
35.009497869018190385759 1488.42814277888737706 35.009497869018190385759 108.92643839927768568
36.009497869018190385759 1490.68865337776969682 36.009497869018190385759 108.59246138603299414
37.009497869018190385759 1492.86459793411540886 37.009497869018190385759 108.26931426174961359
38.009497869018190385759 1494.96100831082867444 38.009497869018190385759 107.95579563550313651
39.009497869018190385759 1496.98246298984054192 39.009497869018190385759 107.64855616891487955
40.009497869018190385759 1498.93319169865299045 40.009497869018190385759 107.34536714028369886
41.009497869018190385759 1500.81708936051222736 41.009497869018190385759 107.05765854228401679
42.009497869018190385759 1502.63773128666184675 42.009497869018190385759 106.76976177606934471
43.009497869018190385759 1504.39843509132583677 43.009497869018190385759 106.49447027621398831
44.009497869018218807469 1506.10227839617027712 44.009497869018218807469 106.21719268332357444
46.009497869018190385759 1509.35057114969390568 46.009497869018190385759 105.67907451954660303
48.009497869018190385759 1512.40312522335329959 48.009497869018190385759 105.16128106067230874
50.009497869018190385759 1515.27779274593103764 50.009497869018190385759 104.64867748934416625
52.009497869018190385759 1517.99018633751234120 52.009497869018190385759 104.15059279124072589
54.009497869018190385759 1520.55408714578265972 54.009497869018190385759 103.66943513674385713
56.009497869018190385759 1522.98164283993014578 56.009497869018190385759 103.19793093962667285
58.009497869018218807469 1525.28371522382076364 58.009497869018218807469 102.71317188346263549
60.009497869018190385759 1527.46993315516033363 60.009497869018190385759 102.25998790194410049
62.009497869018190385759 1529.54900012281291311 62.009497869018190385759 101.81490466142655293
64.009497869018190385759 1531.52868987411852686 64.009497869018190385759 101.37746440808558646
66.009497869018190385759 1533.41604995027478253 66.009497869018190385759 100.94022062610639523
68.009497869018190385759 1535.21748023503846525 68.009497869018190385759 100.50611747830801335
70.009497869018190385759 1536.93871555412306407 70.009497869018190385759 100.09302118043363805
72.009497869018218807469 1538.58508794751901405 72.009497869018218807469 99.68059263438951234
74.009497869018190385759 1540.16139466807112512 74.009497869018190385759 99.28034677683972120
76.009497869018190385759 1541.67202496751883700 76.009497869018190385759 98.88845941280713703
78.009497869018190385759 1543.12107050692043231 78.009497869018190385759 98.50198196181756316
80.009497869018190385759 1544.51222085302470077 80.009497869018190385759 98.12635462886211712
82.009497869018218807469 1545.84888792078777442 82.009497869018218807469 97.76036948489333156
84.009497869018190385759 1547.13427405508900847 84.009497869018190385759 97.40684110496657411
86.009497869018190385759 1548.37127269047709888 86.009497869018190385759 97.05467260947985153
88.009497869018190385759 1549.56256501702887363 88.009497869018190385759 96.71672113648573088
91.009497869018218807469 1551.26934154121886422 91.009497869018218807469 96.22165056995670795
94.009497869018190385759 1552.88667832514875045 94.009497869018190385759 95.74610182302727424
97.009497869018190385759 1554.42152590261389378 97.009497869018190385759 95.28647251402006191
99.504748934509109403734 1555.63983613971277009 99.504748934509109403734 94.99165125816848843
nan nan nan nan

