Time Pressure difference Time.1 Pressure.1 difference.1
(hr) (psi) (hr) (psi)
0.000200000000006639311 0.42112887262214060 0.000200000000006639311 0.33570887811256511
0.000399999999999067768 0.84201923408734680 0.000399999999999067768 0.87872750054948245
0.000600000000005707079 1.26270745803719908 0.000600000000005707079 1.28566517442208017
0.000799999999998135536 1.68321096723315566 0.000799999999998135536 1.69994595799656967
0.001007140329434719206 2.11854103916297065 0.001007140329434719206 2.13484262667235347
0.001267914553963578328 2.66633207774908465 0.001267914553963578328 2.68620627688899072
0.001596209851982166583 3.35556850696694564 0.001596209851982166583 3.37959734839784032
0.002009509145210586212 4.22266845359286336 0.002009509145210586212 4.25140188189035317
0.002529822128138903281 5.31337069647900506 0.002529822128138903281 5.34722044065755941
0.003184857364445292660 6.68508997770667879 0.003184857364445292660 6.72414349854073734
0.004009497869020606231 8.40985112031242821 0.004009497869020606231 8.45355686912950688
0.005047658755842121536 10.57793520613844507 0.005047658755842121536 10.62458288083043634
0.006354625877804664924 13.30239671009730174 0.006354625877804664924 13.34827369480290216
0.008000000000009777068 16.72463809548474245 0.008000000000009777068 16.76267798591679536
0.010071403294347192059 21.02125604169186346 0.010071403294347192059 21.03889533106364951
0.012679145539692626699 26.41239761454673030 0.012679145539692626699 26.38820476331025588
0.015962098519750611558 33.17187905378410306 0.015962098519750611558 33.07029062267940844
0.020095091452091651263 41.63931413102371693 0.020095091452091651263 41.40246832639004992
0.025298221281346400247 52.23445685552954387 0.025298221281346400247 51.76960323380997409
0.031848573644282396344 65.47385960077114930 0.031848573644282396344 64.63407269352751428
0.040094978690191851456 81.98974534759054222 0.040094978690191851456 80.54458450977504924
0.050476587558421215363 102.55063873770546934 0.050476587558421215363 100.14185854021722832
0.063546258777947173257 128.08272273729002677 0.063546258777947173257 124.15801476112163471
0.079999999999998294697 159.68999284658301008 0.079999999999998294697 153.40490642163004509
0.100714032943542974863 198.66995827285819587 0.100714032943542974863 188.74453934788360243
0.126791455396897845276 246.51977400539783503 0.126791455396897845276 231.03216758069621051
0.159620985197506115583 304.92519029980479672 0.159620985197506115583 281.01989183963860341
0.200950914520774404082 375.72157917157807105 0.200950914520774404082 339.20627329549637352
0.252982212813464002465 460.81277000765589946 0.252982212813464002465 405.61715576349945422
0.318485736442795541734 562.03023311962328989 0.318485736442795541734 479.50787953485132675
0.400949786901819038576 680.91407500105970030 0.400949786901819038576 558.99374334273647946
0.504765875584169521062 818.40204829313051960 0.504765875584169521062 640.65391669501332217
0.635462587779443310865 974.42970523709732333 0.635462587779443310865 719.22375104447337435
0.799999999999997157829 1147.48198236449343312 0.799999999999997157829 787.58662782995043017
1.007140329435330272645 1334.19762746374499329 1.007140329435330272645 837.35316584882741608
1.267914553968893187630 1529.19923916603124781 1.267914553968893187630 860.26808405887084064
1.596209851975103788391 1725.35825536091738286 1.596209851975103788391 850.39175524871882317
2.009509145207687197399 1914.63675815740657526 2.009509145207687197399 806.46581130332469911
2.529822128134711078928 2089.43453691497597902 2.529822128134711078928 733.36988521658815898
3.184857364427983839050 2244.07415572839636297 3.184857364427983839050 641.60501032122203924
4.009497869018190385759 2375.86703078974687742 4.009497869018190385759 544.53056875544166360
5.009497869018190385759 2482.03318290031984361 5.009497869018190385759 456.88246596761314322
6.009497869018190385759 2555.08736080217749986 6.009497869018190385759 395.40197603473473009
7.009497869018204596614 2608.84280594719984947 7.009497869018204596614 352.63059553623031661
8.009497869018190385759 2650.53654184166043706 8.009497869018190385759 322.52750790853519902
9.009497869018204596614 2684.22584273502889118 9.009497869018204596614 301.43061285965893603
10.009497869018190385759 2712.32284580547047881 10.009497869018190385759 286.37962631487414455
11.009497869018190385759 2736.33976697443176818 11.009497869018190385759 274.17113217595471042
12.009497869018190385759 2757.26741412035698886 12.009497869018190385759 264.86218246256294151
13.009497869018190385759 2775.78295745480045298 13.009497869018190385759 257.61334443350148149
14.009497869018204596614 2792.36559130941077456 14.009497869018204596614 251.85611997555858466
15.009497869018190385759 2807.36517456921410485 15.009497869018190385759 247.19694645267290412
16.009497869018190385759 2821.04424533797873664 16.009497869018190385759 243.36029680726949209
17.009497869018190385759 2833.60468668946759863 17.009497869018190385759 240.22283197821008116
18.009497869018190385759 2845.20503090087095188 18.009497869018190385759 237.47590449355413966
19.009497869018204596614 2855.97164379625473885 19.009497869018204596614 235.20392767573594028
20.009497869018190385759 2866.00740310213086559 20.009497869018190385759 233.12005876531537751
21.009497869018204596614 2875.39730340571486522 21.009497869018204596614 231.28435834879024924
22.009497869018190385759 2884.21183137840989730 22.009497869018190385759 229.65001044231649985
23.009497869018190385759 2892.51064878682063863 23.009497869018190385759 228.20634370452302164
24.009497869018190385759 2900.34464608651614981 24.009497869018190385759 226.86871375013981833
25.009497869018190385759 2907.75726272806878114 25.009497869018190385759 225.64614207838314996
26.009497869018204596614 2914.78648464606294510 26.009497869018204596614 224.54548123306153684
27.009497869018190385759 2921.46501737941844112 27.009497869018190385759 223.49687899630905008
28.009497869018190385759 2927.82192161210286940 28.009497869018190385759 222.51899447547035038
29.009497869018190385759 2933.88251113637579692 29.009497869018190385759 221.60908444789905047
30.009497869018190385759 2939.66950907002319582 30.009497869018190385759 220.74290708983704690
31.009497869018190385759 2945.20297339232774902 31.009497869018190385759 219.92302916740845831
32.009497869018190385759 2950.50096382115953020 32.009497869018190385759 219.14273528641365374
33.009497869018190385759 2955.57969457705030436 33.009497869018190385759 218.40194107580038008
34.009497869018190385759 2960.45372862711064954 34.009497869018190385759 217.68598714026069274
35.009497869018190385759 2965.13637892172027932 35.009497869018190385759 216.99518830722249163
36.009497869018190385759 2969.63960082343101021 36.009497869018190385759 216.32986402099484735
37.009497869018190385759 2973.97435651441855953 37.009497869018190385759 215.68611423797364068
38.009497869018190385759 2978.15067009952508670 38.009497869018190385759 215.06154563608106400
39.009497869018190385759 2982.17766249157193670 39.009497869018190385759 214.44948591130287241
40.009497869018190385759 2986.06375984062333373 40.009497869018190385759 213.84549516922658086
41.009497869018190385759 2989.81672132448466073 41.009497869018190385759 213.27234339525872997
42.009497869018190385759 2993.44366941358657641 42.009497869018190385759 212.69881676650032887
43.009497869018190385759 2996.95121321342821830 43.009497869018190385759 212.15040141639477156
44.009497869018218807469 3000.34548373410279964 44.009497869018218807469 211.59802951874698351
46.009497869018190385759 3006.81649213285481892 46.009497869018190385759 210.52603034208891586
48.009497869018190385759 3012.89756442132602388 48.009497869018190385759 209.49452053818970398
50.009497869018190385759 3018.62426428913840937 50.009497869018190385759 208.47334964412658564
52.009497869018190385759 3024.02769404244554607 52.009497869018190385759 207.48110217467640837
54.009497869018190385759 3029.13530746364585866 54.009497869018190385759 206.52257550863143365
56.009497869018190385759 3033.97130424017586847 56.009497869018190385759 205.58327974587047038
58.009497869018218807469 3038.55732245375338607 58.009497869018218807469 204.61757863398460699
60.009497869018190385759 3042.91254400201205499 60.009497869018190385759 203.71477904875476383
62.009497869018190385759 3047.05430733127286658 62.009497869018190385759 202.82811716016473724
64.009497869018190385759 3050.99809872560672375 64.009497869018190385759 201.95668106492641414
66.009497869018190385759 3054.75795777495704897 66.009497869018190385759 201.08563636539304298
68.009497869018190385759 3058.34663385405292502 68.009497869018190385759 200.22084820481831002
70.009497869018190385759 3061.77555145821361293 70.009497869018190385759 199.39790833582449636
72.009497869018218807469 3065.05533268285262238 72.009497869018218807469 198.57629871260274967
74.009497869018190385759 3068.19553426001584739 74.009497869018190385759 197.77895853968860251
76.009497869018190385759 3071.20490013214384817 76.009497869018190385759 196.99826953889927950
78.009497869018190385759 3074.09158140355020805 78.009497869018190385759 196.22835776645547412
80.009497869018190385759 3076.86292815602564588 80.009497869018190385759 195.48006079607961283
82.009497869018218807469 3079.52573735401028898 82.009497869018218807469 194.75097228092923274
84.009497869018190385759 3082.08638847194879418 84.009497869018190385759 194.04669920910663450
86.009497869018190385759 3084.55064559598986307 86.009497869018190385759 193.34513519841260631
88.009497869018190385759 3086.92384999455362049 88.009497869018190385759 192.67189328764479228
91.009497869018218807469 3090.32396385770334746 91.009497869018218807469 191.68565034802398372
94.009497869018190385759 3093.54590249025659432 94.009497869018190385759 190.73829733248743423
97.009497869018190385759 3096.60351223119141650 97.009497869018190385759 189.82265784289037924
99.504748934509109403734 3099.03053971139570422 99.504748934509109403734 189.23533675839863122
nan nan nan nan

