Time Pressure difference Time.1 Pressure.1 difference.1
(hr) (psi) (hr) (psi)
0.000200000000006639311 0.36952810166843958 0.000200000000006639311 0.29457458869956304
0.000399999999999067768 0.73884691686715809 0.000399999999999067768 0.77105733249796482
0.000600000000005707079 1.10798836238837239 0.000600000000005707079 1.12813307795139051
0.000799999999998135536 1.47696772618877703 0.000799999999998135536 1.49165218448710846
0.001007140329434719206 1.85895695926553173 0.001007140329434719206 1.87326111905637349
0.001267914553963578328 2.33962735676006650 0.001267914553963578328 2.35706637734923330
0.001596209851982166583 2.94441189148878246 0.001596209851982166583 2.96549648752695871
0.002009509145210586212 3.70526639010915249 0.002009509145210586212 3.73047912165872919
0.002529822128138903281 4.66232527517130091 0.002529822128138903281 4.69202742223706881
0.003184857364445292660 5.86596828083352761 0.003184857364445292660 5.90023658765234593
0.004009497869020606231 7.37939505418719044 0.004009497869020606231 7.41774555314921269
0.005047658755842121536 9.28182456823215141 0.005047658755842121536 9.32275651993816901
0.006354625877804664924 11.67245877328696047 0.006354625877804664924 11.71271446737645761
0.008000000000009777068 14.67537413912099886 0.008000000000009777068 14.70875301531038915
0.010071403294347192059 18.44552901682052592 0.010071403294347192059 18.46100697034043847
0.012679145539692626699 23.17609593055088979 0.012679145539692626699 23.15486742077026250
0.015962098519750611558 29.10734051359711572 0.015962098519750611558 29.01819967681750256
0.020095091452091651263 36.53726378295362309 0.020095091452091651263 36.32943861050826939
0.025298221281346400247 45.83418743844885057 0.025298221281346400247 45.42629216563563688
0.031848573644282396344 57.45137087498495987 0.031848573644282396344 56.71448275874747225
0.040094978690191851456 71.94357101646284036 0.040094978690191851456 70.67548522201605010
0.050476587558421215363 89.98514545363879336 0.050476587558421215363 87.87151223687045842
0.063546258777947173257 112.38879228331377647 0.063546258777947173257 108.94497737932411496
0.079999999999998294697 140.12323482980801259 0.079999999999998294697 134.60825780870305834
0.100714032943542974863 174.32699895879258634 0.100714032943542974863 165.61773808391367879
0.126791455396897845276 216.31379379129771223 0.126791455396897845276 202.72387827238955538
0.159620985197506115583 267.56281520378126970 0.159620985197506115583 246.58662446007818403
0.200950914520774404082 329.68454773158231319 0.200950914520774404082 297.64344929486247793
0.252982212813464002465 404.34954522410913569 0.252982212813464002465 355.91702995848572755
0.318485736442795541734 493.16486858717939867 0.318485736442795541734 420.75394963137154036
0.400949786901819038576 597.48191561357816681 0.400949786901819038576 490.50043882248024829
0.504765875584169521062 718.12353644693666865 0.504765875584169521062 562.15482018297620925
0.635462587779443310865 855.03318008946882856 0.635462587779443310865 631.09752067934027764
0.799999999999997157829 1006.88142326054367004 0.799999999999997157829 691.08391849110284966
1.007140329435330272645 1170.71886678636906254 1.007140329435330272645 734.75258031003818360
1.267914553968893187630 1341.82700037493646050 1.267914553968893187630 754.85974174335694897
1.596209851975103788391 1513.95072209535055663 1.596209851975103788391 746.19355598899437609
2.009509145207687197399 1680.03699727645971507 2.009509145207687197399 707.64984232939946196
2.529822128134711078928 1833.41686638389160180 2.529822128134711078928 643.51033406356748401
3.184857364427983839050 1969.10854771424533283 3.184857364427983839050 562.98937664549919191
4.009497869018190385759 2084.75288867716926688 4.009497869018190385759 477.80943187236380254
5.009497869018190385759 2177.91053993624882423 5.009497869018190385759 400.90081993996091114
6.009497869018190385759 2242.01341540744442682 6.009497869018190385759 346.95351256802814532
7.009497869018204596614 2289.18222498133764020 7.009497869018204596614 309.42289410688982798
8.009497869018190385759 2325.76724224841336763 8.009497869018190385759 283.00832709760794614
9.009497869018204596614 2355.32860508765361374 9.009497869018204596614 264.49642709424620080
10.009497869018190385759 2379.98289236685513970 10.009497869018190385759 251.28963257668797837
11.009497869018190385759 2401.05702872855272290 11.009497869018190385759 240.57704088166775591
12.009497869018190385759 2419.42041871430546962 12.009497869018190385759 232.40871346517380402
13.009497869018190385759 2435.66725911053663367 13.009497869018190385759 226.04807298117520986
14.009497869018204596614 2450.21802873790193189 14.009497869018204596614 220.99627918803952298
15.009497869018190385759 2463.37971839670126428 15.009497869018190385759 216.90799253949953140
16.009497869018190385759 2475.38269749024175326 16.009497869018190385759 213.54144621033134399
17.009497869018190385759 2486.40411243107428163 17.009497869018190385759 210.78841383068234450
18.009497869018190385759 2496.58307059285925789 18.009497869018190385759 208.37806639355343918
19.009497869018204596614 2506.03045424019228449 19.009497869018204596614 206.38447408700943697
20.009497869018190385759 2514.83653552835176015 20.009497869018190385759 204.55594089288544524
21.009497869018204596614 2523.07589468801870680 21.009497869018204596614 202.94516819538117147
22.009497869018190385759 2530.81038168382201548 22.009497869018190385759 201.51107635649904637
23.009497869018190385759 2538.09234794732856244 23.009497869018190385759 200.24430159053008538
24.009497869018190385759 2544.96644834468997942 24.009497869018190385759 199.07057095862069218
25.009497869018190385759 2551.47079970605227572 25.009497869018190385759 197.99780055889746677
26.009497869018204596614 2557.63873356294880068 26.009497869018204596614 197.03200329541365932
27.009497869018190385759 2563.49894805624853689 27.009497869018190385759 196.11188591770991252
28.009497869018190385759 2569.07694307465135353 28.009497869018190385759 195.25382123934551259
29.009497869018190385759 2574.39493072045661393 29.009497869018190385759 194.45540216376912213
30.009497869018190385759 2579.47284985591022632 30.009497869018190385759 193.69535720926410249
31.009497869018190385759 2584.32830076322807145 31.009497869018190385759 192.97593863701456485
32.009497869018190385759 2588.97713030947579682 32.009497869018190385759 192.29125388768312632
33.009497869018190385759 2593.43356599251046646 33.009497869018190385759 191.64122892817269417
34.009497869018190385759 2597.71038638426307443 34.009497869018190385759 191.01300057366748320
35.009497869018190385759 2601.81927320403929116 35.009497869018190385759 190.40684507590273711
36.009497869018190385759 2605.77071692807021464 36.009497869018190385759 189.82304273778996162
37.009497869018190385759 2609.57433654624901465 37.009497869018190385759 189.25817138668043071
38.009497869018190385759 2613.23892791341722841 38.009497869018190385759 188.71013095339915822
39.009497869018190385759 2616.77249436019337736 39.009497869018190385759 188.17306668896932820
40.009497869018190385759 2620.18242958347218519 40.009497869018190385759 187.64308271766128655
41.009497869018190385759 2623.47554203176150622 41.009497869018190385759 187.14015902666969282
42.009497869018190385759 2626.65808146172412307 42.009497869018190385759 186.63690641171174889
43.009497869018190385759 2629.73584716751429369 43.009497869018190385759 186.15568819936615341
44.009497869018218807469 2632.71421892873877368 44.009497869018218807469 185.67099823384120327
46.009497869018190385759 2638.39233697033114368 46.009497869018190385759 184.73035073495549341
48.009497869018190385759 2643.72829763452318730 48.009497869018190385759 183.82523146038781192
50.009497869018190385759 2648.75330700469839940 50.009497869018190385759 182.92918427271186488
52.009497869018190385759 2653.49465643250141511 52.009497869018190385759 182.05851653272000590
54.009497869018190385759 2657.97643579813984616 54.009497869018190385759 181.21743779808767272
56.009497869018190385759 2662.21987960995693356 56.009497869018190385759 180.39323361100096577
58.009497869018218807469 2666.24397464321464213 58.009497869018218807469 179.54585951282442124
60.009497869018190385759 2670.06555244445326025 60.009497869018190385759 178.75367963961880946
62.009497869018190385759 2673.69982698633384643 62.009497869018190385759 177.97566011682437193
64.009497869018190385759 2677.16038702404966898 64.009497869018190385759 177.21100077633857950
66.009497869018190385759 2680.45955188158268356 66.009497869018190385759 176.44668487398124057
68.009497869018190385759 2683.60850875731148335 68.009497869018190385759 175.68785889908960485
70.009497869018190385759 2686.61728230720700594 70.009497869018190385759 174.96575355949818231
72.009497869018218807469 2689.49519310511186632 72.009497869018218807469 174.24481547113757074
74.009497869018190385759 2692.25062690009281141 74.009497869018190385759 173.54517310597179858
76.009497869018190385759 2694.89125624243479251 76.009497869018190385759 172.86014165073376603
78.009497869018190385759 2697.42423348453803555 78.009497869018190385759 172.18456689388582959
80.009497869018190385759 2699.85600810528740112 80.009497869018190385759 171.52795848509754251
82.009497869018218807469 2702.19254423948723343 82.009497869018218807469 170.88820492634897619
84.009497869018190385759 2704.43943968684880019 84.009497869018190385759 170.27022618348487981
86.009497869018190385759 2706.60175226209366883 86.009497869018190385759 169.65462456145297665
88.009497869018190385759 2708.68416876992478137 88.009497869018190385759 169.06387474251835101
91.009497869018218807469 2711.66766789094936030 91.009497869018218807469 168.19847579945187022
94.009497869018190385759 2714.49482352899985926 94.009497869018190385759 167.36720161190595491
97.009497869018190385759 2717.17778543606527819 97.009497869018190385759 166.56375510324767220
99.504748934509109403734 2719.30743010248988867 99.504748934509109403734 166.04839826231025768
nan nan nan nan

