Time Pressure difference Time.1 Pressure.1 difference.1
(hr) (psi) (hr) (psi)
0.000200000000006639311 0.65416461241304835 0.000200000000006639311 0.52147663675192912
0.000399999999999067768 1.30795873121077988 0.000399999999999067768 1.36497987239504592
0.000600000000005707079 1.96143885774157822 0.000600000000005707079 1.99710044880584014
0.000799999999998135536 2.61463205582067237 0.000799999999998135536 2.64062751578123311
0.001007140329434719206 3.29085623869979216 0.001007140329434719206 3.31617846751871514
0.001267914553963578328 4.14177275318336058 0.001267914553963578328 4.17264453287499304
0.001596209851982166583 5.21240483493284490 0.001596209851982166583 5.24973026845988677
0.002009509145210586212 6.55932293384187837 0.002009509145210586212 6.60395628293639891
0.002529822128138903281 8.25357582496541120 0.002529822128138903281 8.30615665287913529
0.003184857364445292660 10.38434925390800068 0.003184857364445292660 10.44501341868185662
0.004009497869020606231 13.06352367700705308 0.004009497869020606231 13.13141442516955060
0.005047658755842121536 16.43133808700556742 0.005047658755842121536 16.50379870421486928
0.006354625877804664924 20.66340674730529514 0.006354625877804664924 20.73467020576102726
0.008000000000009777068 25.97937854357906673 0.008000000000009777068 26.03846817575217543
0.010071403294347192059 32.65357163788498696 0.010071403294347192059 32.68097179884590986
0.012679145539692626699 41.02795360678602776 0.012679145539692626699 40.99037340703925025
0.015962098519750611558 51.52785955785435590 0.015962098519750611558 51.37005618463638967
0.020095091452091651263 64.68083183198547204 0.020095091452091651263 64.31292510779165639
0.025298221281346400247 81.13889938428107484 0.025298221281346400247 80.41681450943605114
0.031848573644282396344 101.70445384625716656 0.031848573644282396344 100.39996272156646739
0.040094978690191851456 127.35956490752207060 0.040094978690191851456 125.11471032546083393
0.050476587558421215363 159.29802776252273588 0.050476587558421215363 155.55632571662204100
0.063546258777947173257 198.95853769073113426 0.063546258777947173257 192.86205454988458996
0.079999999999998294697 248.05599679330885010 0.079999999999998294697 238.29299693162295171
0.100714032943542974863 308.60590356218688157 0.100714032943542974863 293.18815795936069435
0.126791455396897845276 382.93387819810817518 0.126791455396897845276 358.87605477950046406
0.159620985197506115583 473.65849718507223542 0.159620985197506115583 436.52497032797623433
0.200950914520774404082 583.63075341672004015 0.200950914520774404082 526.90934942739158942
0.252982212813464002465 715.80797870754463474 0.252982212813464002465 630.06933681840041572
0.318485736442795541734 873.03510520162831199 0.318485736442795541734 744.84820813121177707
0.400949786901819038576 1057.70447223484779897 0.400949786901819038576 868.31834440195814295
0.504765875584169521062 1271.27274695336086552 0.504765875584169521062 995.16596545905258608
0.635462587779443310865 1513.63981880703249772 0.635462587779443310865 1117.21317849991328330
0.799999999999997157829 1782.45224928555694532 0.799999999999997157829 1223.40531516668215772
1.007140329435330272645 2072.48880471641041368 1.007140329435330272645 1300.71064892722984041
1.267914553968893187630 2375.39644660968451717 1.267914553968893187630 1336.30575903215913058
1.596209851975103788391 2680.10195397960706032 1.596209851975103788391 1320.96426803457120513
2.009509145207687197399 2974.11954923265147954 2.009509145207687197399 1252.73147763718020542
2.529822128134711078928 3245.64337157148383994 2.529822128134711078928 1139.18721300442325628
3.184857364427983839050 3485.85432095359601590 3.184857364427983839050 996.64335595351894881
4.009497869018190385759 3690.57605968525876960 4.009497869018190385759 845.85183209837373397
5.009497869018190385759 3855.49028015741396302 5.009497869018190385759 709.70280286668764802
6.009497869018190385759 3968.96969484290866603 6.009497869018190385759 614.20148846502274864
7.009497869018204596614 4052.47123611561119105 7.009497869018204596614 547.76215037841302546
8.009497869018190385759 4117.23660452084004646 8.009497869018190385759 501.00122769981948068
9.009497869018204596614 4169.56820630381935189 9.009497869018204596614 468.23016147765207506
10.009497869018190385759 4213.21295810889205313 10.009497869018190385759 444.85056577765033126
11.009497869018190385759 4250.51987518162695778 11.009497869018190385759 425.88638318241186198
12.009497869018190385759 4283.02803853478417295 12.009497869018190385759 411.42623599915901877
13.009497869018190385759 4311.78933707405849418 13.009497869018190385759 400.16618325045885740
14.009497869018204596614 4337.54813195493443345 14.009497869018204596614 391.22314288693485196
15.009497869018190385759 4360.84787986443188856 15.009497869018190385759 383.98577057668160251
16.009497869018190385759 4382.09639690840140247 16.009497869018190385759 378.02607369666759496
17.009497869018190385759 4401.60728011446917662 17.009497869018190385759 373.15246232188366093
18.009497869018190385759 4419.62678713060176960 18.009497869018190385759 368.88549591291217666
19.009497869018204596614 4436.35120953331261262 19.009497869018204596614 365.35629872159773868
20.009497869018190385759 4451.94035343532505067 20.009497869018190385759 362.11930076983770732
21.009497869018204596614 4466.52624600176295644 21.009497869018204596614 359.26779775128289884
22.009497869018190385759 4480.21837838622559502 22.009497869018190385759 356.72906760407261118
23.009497869018190385759 4493.10942677162256587 23.009497869018190385759 354.48653389674922209
24.009497869018190385759 4505.27844233992436784 24.009497869018190385759 352.40871345377451007
25.009497869018190385759 4516.79290218233563792 25.009497869018190385759 350.50961990831848425
26.009497869018204596614 4527.71181211819293821 26.009497869018204596614 348.79989772566472084
27.009497869018190385759 4538.08597561308852164 27.009497869018190385759 347.17104128675674701
28.009497869018190385759 4547.96053436188230990 28.009497869018190385759 345.65203489667919712
29.009497869018190385759 4557.37480978891653649 29.009497869018190385759 344.23861734396967904
30.009497869018190385759 4566.36409906924563984 30.009497869018190385759 342.89313235694055493
31.009497869018190385759 4574.95955945922833052 31.009497869018190385759 341.61956704660678952
32.009497869018190385759 4583.18924419650466007 32.009497869018190385759 340.40748999035793076
33.009497869018190385759 4591.07833979755287146 33.009497869018190385759 339.25677012960295542
34.009497869018190385759 4598.64946778835746954 34.009497869018190385759 338.14463615068166291
35.009497869018190385759 4605.92330796931219083 35.009497869018190385759 337.07157709382778421
36.009497869018190385759 4612.91843131861060101 36.009497869018190385759 336.03808917095250308
37.009497869018190385759 4619.65186604808877746 37.009497869018190385759 335.03811421155586459
38.009497869018190385759 4626.13918319807635271 38.009497869018190385759 334.06793452561208824
39.009497869018190385759 4632.39455082682889042 39.009497869018190385759 333.11718562506729313
40.009497869018190385759 4638.43105777614709950 40.009497869018190385759 332.17897075694094156
41.009497869018190385759 4644.26075684000988986 41.009497869018190385759 331.28865989856393526
42.009497869018190385759 4649.89471177683572023 42.009497869018190385759 330.39776675586813326
43.009497869018190385759 4655.34318890465328877 43.009497869018190385759 329.54588046104015575
44.009497869018218807469 4660.61571188736070326 44.009497869018218807469 328.68784822477294938
46.009497869018190385759 4670.66751544747785374 46.009497869018190385759 327.02264792269147620
48.009497869018190385759 4680.11360797462930350 48.009497869018190385759 325.42034217987571765
50.009497869018190385759 4689.00923267047892296 50.009497869018190385759 323.83409648277370252
52.009497869018190385759 4697.40270260348279407 52.009497869018190385759 322.29277926738268434
54.009497869018190385759 4705.33666337238264532 54.009497869018190385759 320.80384258850659762
56.009497869018190385759 4712.84870579600465135 56.009497869018190385759 319.34477841947472143
58.009497869018218807469 4719.97244159812271391 58.009497869018218807469 317.84469724567571802
60.009497869018190385759 4726.73766716518093745 60.009497869018190385759 316.44232476743331972
62.009497869018190385759 4733.17131534067266330 62.009497869018190385759 315.06501993654040916
64.009497869018190385759 4739.29744189392658882 64.009497869018190385759 313.71136623919397834
66.009497869018190385759 4745.13785535793704184 66.009497869018190385759 312.35832052015604177
68.009497869018190385759 4750.71236009740277950 68.009497869018190385759 311.01499345649642692
70.009497869018190385759 4756.03870246275801037 70.009497869018190385759 309.73667184181431367
72.009497869018218807469 4761.13338238877895492 72.009497869018218807469 308.46041657728409291
74.009497869018190385759 4766.01124491773134650 74.009497869018190385759 307.22186049840956912
76.009497869018190385759 4770.68587253728310316 76.009497869018190385759 306.00916967900161580
78.009497869018190385759 4775.16992684424985782 78.009497869018190385759 304.81321977160871484
80.009497869018190385759 4779.47482515935917036 80.009497869018190385759 303.65084542632132525
82.009497869018218807469 4783.61112561314621416 82.009497869018218807469 302.51830872096911662
84.009497869018190385759 4787.58873782401587960 84.009497869018190385759 301.42431932481781587
86.009497869018190385759 4791.41661549100444972 86.009497869018190385759 300.33453807500461608
88.009497869018190385759 4795.10305552513727889 88.009497869018190385759 299.28875123337707009
91.009497869018218807469 4800.38465532046393491 91.009497869018218807469 297.75676121254321060
94.009497869018190385759 4805.38948489593349223 94.009497869018190385759 296.28518123188757727
97.009497869018190385759 4810.13905259627790656 97.009497869018190385759 294.86286376385737640
99.504748934509109403734 4813.90909923548861116 99.504748934509109403734 293.95054286976545654
nan nan nan nan

