Time Pressure difference Time.1 Pressure.1 difference.1
(hr) (psi) (hr) (psi)
0.000200000000006639311 0.68745543238317808 0.000200000000006639311 0.54801488798612408
0.000399999999999067768 1.37452151651412757 0.000399999999999067768 1.43444449694441212
0.000600000000005707079 2.06125762912791810 0.000600000000005707079 2.09873405943209157
0.000799999999998135536 2.74769221133317521 0.000799999999998135536 2.77501059546475615
0.001007140329434719206 3.45832983863362431 0.001007140329434719206 3.48494073049676656
0.001267914553963578328 4.35254999253111396 0.001267914553963578328 4.38499285515870785
0.001596209851982166583 5.47766716749940130 0.001596209851982166583 5.51689211418303582
0.002009509145210586212 6.89313071673459365 0.002009509145210586212 6.94003548308583351
0.002529822128138903281 8.67360512903489678 0.002529822128138903281 8.72886182605364525
0.003184857364445292660 10.91281486479390495 0.003184857364445292660 10.97656626441630223
0.004009497869020606231 13.72833404224914311 0.004009497869020606231 13.79967979031812852
0.005047658755842121536 17.26753849855801093 0.005047658755842121536 17.34368667898407068
0.006354625877804664924 21.71497960976358144 0.006354625877804664924 21.78986970732647421
0.008000000000009777068 27.30148432187825591 0.008000000000009777068 27.36358106001437207
0.010071403294347192059 34.31533100876971787 0.010071403294347192059 34.34412557995766235
0.012679145539692626699 43.11589017710593197 0.012679145539692626699 43.07639749900052806
0.015962098519750611558 54.15014248700725119 0.015962098519750611558 53.98430840777310635
0.020095091452091651263 67.97247721783715235 0.020095091452091651263 67.58584750513475115
0.025298221281346400247 85.26810545981699363 0.025298221281346400247 84.50927326309691523
0.031848573644282396344 106.88025302418373030 0.031848573644282396344 105.50937558271488115
0.040094978690191851456 133.84096770179800728 0.040094978690191851456 131.48187115627308685
0.050476587558421215363 167.40479762321089652 0.050476587558421215363 163.47267817039414695
0.063546258777947173257 209.08365411265131684 0.063546258777947173257 202.67691737685072439
0.079999999999998294697 260.67971164284108454 0.079999999999998294697 250.41986700447910152
0.100714032943542974863 324.31103860351947787 0.100714032943542974863 308.10867490385737710
0.126791455396897845276 402.42160736849530167 0.126791455396897845276 377.13946723647251247
0.159620985197506115583 497.76325531153901238 0.159620985197506115583 458.73998154059586341
0.200950914520774404082 613.33206402316898220 0.200950914520774404082 553.72407458909094657
0.252982212813464002465 752.23586566467145076 0.252982212813464002465 662.13393411195761473
0.318485736442795541734 917.46437264191467875 0.318485736442795541734 782.75396935926323749
0.400949786901819038576 1111.53167183967457277 0.400949786901819038576 912.50757312470420857
0.504765875584169521062 1335.96856104767948636 0.504765875584169521062 1045.81054385391530559
0.635462587779443310865 1590.66983503130904865 0.635462587779443310865 1174.06881099354745857
0.799999999999997157829 1873.16228741713734962 0.799999999999997157829 1285.66512764335789143
1.007140329435330272645 2177.95897289536242170 1.007140329435330272645 1366.90457508128724839
1.267914553968893187630 2496.28176195877767896 1.267914553968893187630 1404.31114117120000628
1.596209851975103788391 2816.49391092513405965 1.596209851975103788391 1388.18891271826419143
2.009509145207687197399 3125.47423367197188782 2.009509145207687197399 1316.48371568487391414
2.529822128134711078928 3410.81606223669950850 2.529822128134711078928 1197.16111697411429304
3.184857364427983839050 3663.25148741433940813 3.184857364427983839050 1047.36311961527553649
4.009497869018190385759 3878.39163524176046849 4.009497869018190385759 888.89772686164974402
5.009497869018190385759 4051.69843690842753858 5.009497869018190385759 745.81999385226970389
6.009497869018190385759 4170.95288542015532585 6.009497869018190385759 645.45856166934959219
7.009497869018204596614 4258.70386899681307113 7.009497869018204596614 575.63808678443911049
8.009497869018190385759 4326.76518490357921110 8.009497869018190385759 526.49747338428858257
9.009497869018204596614 4381.75997252793240477 9.009497869018204596614 492.05866842307960951
10.009497869018190385759 4427.62583129509584978 10.009497869018190385759 467.48927141518981898
11.009497869018190385759 4466.83131921122640051 11.009497869018190385759 447.55999046904861416
12.009497869018190385759 4500.99384202255896525 12.009497869018190385759 432.36395793295844214
13.009497869018190385759 4531.21881987680808379 13.009497869018190385759 420.53087451002414809
14.009497869018204596614 4558.28849490429547586 14.009497869018204596614 411.13271758856001270
15.009497869018190385759 4582.77398062089105224 15.009497869018190385759 403.52703116582569010
16.009497869018190385759 4605.10384713274743262 16.009497869018190385759 397.26404182372448304
17.009497869018190385759 4625.60765060375524627 17.009497869018190385759 392.14240951383698075
18.009497869018190385759 4644.54418087770591228 18.009497869018190385759 387.65829468710620631
19.009497869018204596614 4662.11971892432120512 19.009497869018204596614 383.94949458529231379
20.009497869018190385759 4678.50220348292532435 20.009497869018190385759 380.54776391334087293
21.009497869018204596614 4693.83038065834080044 21.009497869018204596614 377.55114623735323676
22.009497869018190385759 4708.21931367305569438 22.009497869018190385759 374.88321862718066768
23.009497869018190385759 4721.76639505516504869 23.009497869018190385759 372.52656106706717765
24.009497869018190385759 4734.55469894755424320 24.009497869018190385759 370.34299912572225821
25.009497869018190385759 4746.65513639008895552 25.009497869018190385759 368.34725959830927877
26.009497869018204596614 4758.12971604278300219 26.009497869018204596614 366.55052865317946953
27.009497869018190385759 4769.03182678932716954 27.009497869018190385759 364.83877875682071590
28.009497869018190385759 4779.40890761185164592 28.009497869018190385759 363.24246924256624425
29.009497869018190385759 4789.30228102499313536 29.009497869018190385759 361.75712204340834433
30.009497869018190385759 4798.74904049770611891 30.009497869018190385759 360.34316453795531743
31.009497869018190385759 4807.78192889735692006 31.009497869018190385759 359.00478674363517939
32.009497869018190385759 4816.43042710726876976 32.009497869018190385759 357.73102637663572523
33.009497869018190385759 4824.72100340048200451 33.009497869018190385759 356.52174570871761716
34.009497869018190385759 4832.67743052567948325 34.009497869018190385759 355.35301458074178527
35.009497869018190385759 4840.32144069039713941 35.009497869018190385759 354.22534692048571969
36.009497869018190385759 4847.67254996077826945 36.009497869018190385759 353.13926419237498067
37.009497869018190385759 4854.74865312432757491 37.009497869018190385759 352.08839992206765146
38.009497869018190385759 4861.56611364072705328 38.009497869018190385759 351.06884722411649591
39.009497869018190385759 4868.13982058900910488 39.009497869018190385759 350.06971415560508376
40.009497869018190385759 4874.48352890979276708 40.009497869018190385759 349.08375298375722195
41.009497869018190385759 4880.60990477079849370 41.009497869018190385759 348.14813368475040534
42.009497869018190385759 4886.53057497158533806 42.009497869018190385759 347.21190246863494622
43.009497869018190385759 4892.25632828911420802 43.009497869018190385759 346.31666318170374552
44.009497869018218807469 4897.79717305211306666 44.009497869018218807469 345.41496518277671157
46.009497869018190385759 4908.36051877813861211 46.009497869018190385759 343.66502186277756437
48.009497869018190385759 4918.28732848224353802 48.009497869018190385759 341.98117384297370336
50.009497869018190385759 4927.63565672495678882 50.009497869018190385759 340.31420317400898057
52.009497869018190385759 4936.45627525506006350 52.009497869018190385759 338.69444742348366617
54.009497869018190385759 4944.79399993077367981 54.009497869018190385759 337.12973788563158450
56.009497869018190385759 4952.68833458969493222 56.009497869018190385759 335.59642108713239850
58.009497869018218807469 4960.17460147589008557 58.009497869018218807469 334.01999990448871358
60.009497869018190385759 4967.28411333134772576 60.009497869018190385759 332.54625987010166455
62.009497869018190385759 4974.04517362773003697 62.009497869018190385759 331.09886319030840696
64.009497869018190385759 4980.48306234654319269 64.009497869018190385759 329.67632126408938120
66.009497869018190385759 4986.62069786979191122 66.009497869018190385759 328.25441825655070716
68.009497869018190385759 4992.47889241788107029 68.009497869018190385759 326.84272849245047610
70.009497869018190385759 4998.07629546340831439 70.009497869018190385759 325.49935234267002215
72.009497869018218807469 5003.43024663248343131 72.009497869018218807469 324.15814770081004781
74.009497869018190385759 5008.55634644026304159 74.009497869018190385759 322.85656077822682164
76.009497869018190385759 5013.46886859515961987 76.009497869018190385759 321.58215541330196174
78.009497869018190385759 5018.18111905006389861 78.009497869018190385759 320.32534291520204306
80.009497869018190385759 5022.70509615983610274 80.009497869018190385759 319.10381465921301469
82.009497869018218807469 5027.05189536445141130 82.009497869018218807469 317.91364249811772424
84.009497869018190385759 5031.23193058859669691 84.009497869018190385759 316.76397934134797651
86.009497869018190385759 5035.25461119029205292 86.009497869018190385759 315.61873848594632364
88.009497869018190385759 5039.12865631522072363 88.009497869018190385759 314.51973093991028918
91.009497869018218807469 5044.67903981514427869 91.009497869018218807469 312.90977705033168377
94.009497869018190385759 5049.93856809674343822 94.009497869018190385759 311.36330750323043048
97.009497869018190385759 5054.92984407700441807 97.009497869018190385759 309.86860746685266577
99.504748934509109403734 5058.89175059607259755 99.504748934509109403734 308.90985802853214182
nan nan nan nan

