Time Pressure difference Time.1 Pressure.1 difference.1
(hr) (psi) (hr) (psi)
0.000200000000006639311 0.37618626566246549 0.000200000000006639311 0.29988223894640198
0.000399999999999067768 0.75215947392782767 0.000399999999999067768 0.78495025740783808
0.000600000000005707079 1.12795211666564033 0.000600000000005707079 1.14845980007664061
0.000799999999998135536 1.50357975729127746 0.000799999999998135536 1.51852880042381333
0.001007140329434719206 1.89245167925229785 0.001007140329434719206 1.90701357165198382
0.001267914553963578328 2.38178280462961700 0.001267914553963578328 2.39953604180597591
0.001596209851982166583 2.99746435800209365 0.001596209851982166583 3.01892885667158861
0.002009509145210586212 3.77202794668769581 0.002009509145210586212 3.79769496168861576
0.002529822128138903281 4.74633113598519785 0.002529822128138903281 4.77656845687197062
0.003184857364445292660 5.97166140301070847 0.003184857364445292660 6.00654715679923612
0.004009497869020606231 7.51235712723560844 0.004009497869020606231 7.55139862617892721
0.005047658755842121536 9.44906465054264189 0.005047658755842121536 9.49073411489200858
0.006354625877804664924 11.88277334577861666 0.006354625877804664924 11.92375436768954700
0.008000000000009777068 14.93979529478083812 0.008000000000009777068 14.97377559216282705
0.010071403294347192059 18.77788089099747282 0.010071403294347192059 18.79363772656278897
0.012679145539692626699 23.59368324461486566 0.012679145539692626699 23.57207223916251948
0.015962098519750611558 29.63179709942769335 0.015962098519750611558 29.54105012144484377
0.020095091452091651263 37.19559286012395916 0.020095091452091651263 36.98402308997687982
0.025298221281346400247 46.66002865355604001 0.025298221281346400247 46.24478391636780117
0.031848573644282396344 58.48653071057027830 0.031848573644282396344 57.73636533097715073
0.040094978690191851456 73.23985157531804191 0.040094978690191851456 71.94891738817848648
0.050476587558421215363 91.60649942577643401 0.050476587558421215363 89.45478272762488814
0.063546258777947173257 114.41381556769781014 0.063546258777947173257 110.90794994471733048
0.079999999999998294697 142.64797779971448222 0.079999999999998294697 137.03363182327427694
0.100714032943542974863 177.46802596705907717 0.100714032943542974863 168.60184147281299261
0.126791455396897845276 220.21133962537518869 0.126791455396897845276 206.37656076378399916
0.159620985197506115583 272.38376682907460236 0.159620985197506115583 251.02962670260211553
0.200950914520774404082 335.62480985287209023 0.200950914520774404082 303.00639432720231525
0.252982212813464002465 411.63512261553455573 0.252982212813464002465 362.32994941719715598
0.318485736442795541734 502.05072207523659245 0.318485736442795541734 428.33510187698186655
0.400949786901819038576 608.24735553454354431 0.400949786901819038576 499.33828456702940457
0.504765875584169521062 731.06269926580034735 0.504765875584169521062 572.28373586194879863
0.635462587779443310865 870.43918333432407053 0.635462587779443310865 642.46864717806715817
0.799999999999997157829 1025.02343088685961447 0.799999999999997157829 703.53588098643797366
1.007140329435330272645 1191.81290042215960057 1.007140329435330272645 747.99136554084975614
1.267914553968893187630 1366.00406344475482001 1.267914553968893187630 768.46081817116532875
1.596209851975103788391 1541.22911348445586555 1.596209851975103788391 759.63848492573310978
2.009509145207687197399 1710.30793416432356935 2.009509145207687197399 720.40028993893815823
2.529822128134711078928 1866.45140451693487194 2.529822128134711078928 655.10511485750555494
3.184857364427983839050 2004.58798100639410222 3.184857364427983839050 573.13332937785060039
4.009497869018190385759 2122.31600378846951571 4.009497869018190385759 486.41861082501901592
5.009497869018190385759 2217.15217128645144840 5.009497869018190385759 408.12425813707739053
6.009497869018190385759 2282.41005352289403163 6.009497869018190385759 353.20492720889347993
7.009497869018204596614 2330.42875155757838002 7.009497869018204596614 314.99808138809504499
8.009497869018190385759 2367.67295832496120056 8.009497869018190385759 288.10757623450177789
9.009497869018204596614 2397.76695833247640621 9.009497869018204596614 269.26212848333170768
10.009497869018190385759 2422.86546700409598998 10.009497869018190385759 255.81737370419588729
11.009497869018190385759 2444.31931753447224764 11.009497869018190385759 244.91176233899514614
12.009497869018190385759 2463.01357941186051903 12.009497869018190385759 236.59625785193370007
13.009497869018190385759 2479.55315567108664254 13.009497869018190385759 230.12101123308829642
14.009497869018204596614 2494.36610132777377657 14.009497869018204596614 224.97819412836454944
15.009497869018190385759 2507.76493854799355177 15.009497869018190385759 220.81624465732835461
16.009497869018190385759 2519.98418753511123214 16.009497869018190385759 217.38903983574269319
17.009497869018190385759 2531.20418652893158651 17.009497869018190385759 214.58640326907305962
18.009497869018190385759 2541.56654934227981357 18.009497869018190385759 212.13262614839223374
19.009497869018204596614 2551.18415611839373014 19.009497869018204596614 210.10311325974831220
20.009497869018190385759 2560.14890553787154204 20.009497869018190385759 208.24163352158603857
21.009497869018204596614 2568.53672161933400275 21.009497869018204596614 206.60183789259525611
22.009497869018190385759 2576.41056874118794440 22.009497869018190385759 205.14190656112066335
23.009497869018190385759 2583.82374160403742280 23.009497869018190385759 203.85230702459367080
24.009497869018190385759 2590.82169966621586354 24.009497869018190385759 202.65742809301025318
25.009497869018190385759 2597.44324654760293924 25.009497869018190385759 201.56532849689563136
26.009497869018204596614 2603.72231434786635873 26.009497869018204596614 200.58212948091662042
27.009497869018190385759 2609.68811829149626647 27.009497869018190385759 199.64543341172270630
28.009497869018190385759 2615.36661772464503883 28.009497869018190385759 198.77190810852292202
29.009497869018190385759 2620.78042496767193370 29.009497869018190385759 197.95910310365684381
30.009497869018190385759 2625.94983814160195834 30.009497869018190385759 197.18536364546707773
31.009497869018190385759 2630.89277465085388030 31.009497869018190385759 196.45298257642022577
32.009497869018190385759 2635.62536689162880066 32.009497869018190385759 195.75596116493866816
33.009497869018190385759 2640.16209871309683876 33.009497869018190385759 195.09422404399560946
34.009497869018190385759 2644.51597893172765907 34.009497869018190385759 194.45467625967953040
35.009497869018190385759 2648.69889974825628087 35.009497869018190385759 193.83759904123431284
36.009497869018190385759 2652.72154065650374832 36.009497869018190385759 193.24327774207446851
37.009497869018190385759 2656.59369396149622844 37.009497869018190385759 192.66822852878277672
38.009497869018190385759 2660.32431400194718663 38.009497869018190385759 192.11031349310007954
39.009497869018190385759 2663.92154831262951120 39.009497869018190385759 191.56357239507687495
40.009497869018190385759 2667.39292381020140965 40.009497869018190385759 191.02403916302455400
41.009497869018190385759 2670.74537161791931794 41.009497869018190385759 190.51205378390699252
42.009497869018190385759 2673.98525410067395569 42.009497869018190385759 189.99973355426510579
43.009497869018190385759 2677.11847504440675038 43.009497869018190385759 189.50984474349888842
44.009497869018218807469 2680.15051116168888257 44.009497869018218807469 189.01642162544195003
46.009497869018190385759 2685.93093763646311345 46.009497869018190385759 188.05882552297271104
48.009497869018190385759 2691.36304173604639800 48.009497869018190385759 187.13739779300740906
50.009497869018190385759 2696.47859181559397257 50.009497869018190385759 186.22520561095893754
52.009497869018190385759 2701.30537096281705089 52.009497869018190385759 185.33885016394017953
54.009497869018190385759 2705.86790310981814400 54.009497869018190385759 184.48261685751268146
56.009497869018190385759 2710.18780536869462594 56.009497869018190385759 183.64356214453252392
58.009497869018218807469 2714.28440661876811646 58.009497869018218807469 182.78092004458704878
60.009497869018190385759 2718.17484167768679981 60.009497869018190385759 181.97446666015247274
62.009497869018190385759 2721.87459864374568497 62.009497869018190385759 181.18242876757798854
64.009497869018190385759 2725.39751111457326260 64.009497869018190385759 180.40399178131767144
66.009497869018190385759 2728.75612038395365744 66.009497869018190385759 179.62590442126020207
68.009497869018190385759 2731.96181522140659581 68.009497869018190385759 178.85340590628038626
70.009497869018190385759 2735.02480090733706675 70.009497869018190385759 178.11828965966932969
72.009497869018218807469 2737.95456595385257970 72.009497869018218807469 177.38436169584275603
74.009497869018190385759 2740.75964720459887758 74.009497869018190385759 176.67211316193527182
76.009497869018190385759 2743.44785545400964111 76.009497869018190385759 175.97473879759380111
78.009497869018190385759 2746.02647192570111656 78.009497869018190385759 175.28699152260449523
80.009497869018190385759 2748.50206230538242380 80.009497869018190385759 174.61855233167585766
82.009497869018218807469 2750.88069818974827285 82.009497869018218807469 173.96727168177869771
84.009497869018190385759 2753.16807823976478176 84.009497869018190385759 173.33815818679093468
86.009497869018190385759 2755.36935140195146232 86.009497869018190385759 172.71146464364133521
88.009497869018190385759 2757.48928892794128842 88.009497869018190385759 172.11007068382500051
91.009497869018218807469 2760.52654478988552000 91.009497869018218807469 171.22907896700959895
94.009497869018190385759 2763.40464016916212131 94.009497869018190385759 170.38282686617452555
97.009497869018190385759 2766.13594373221076239 97.009497869018190385759 169.56490384384673575
99.504748934509109403734 2768.30396037460650405 99.504748934509109403734 169.04026129406361179
nan nan nan nan

