Time Pressure difference Time.1 Pressure.1 difference.1
(hr) (psi) (hr) (psi)
0.000200000000006639311 0.09737564841262934 0.000200000000006639311 0.07762438486001999
0.000399999999999067768 0.19469614701229165 0.000399999999999067768 0.20318402680689612
0.000600000000005707079 0.29196990630504410 0.000600000000005707079 0.29727831108178532
0.000799999999998135536 0.38920095487406958 0.000799999999998135536 0.39307050807430566
0.001007140329434719206 0.48986027980645769 0.001007140329434719206 0.49362961921080106
0.001267914553963578328 0.61652342509217972 0.001267914553963578328 0.62111884267986550
0.001596209851982166583 0.77589232275717912 0.001596209851982166583 0.78144839874021210
0.002009509145210586212 0.97638776496119561 0.002009509145210586212 0.98303166043709755
0.002529822128138903281 1.22858571440324815 0.002529822128138903281 1.23641263153544378
0.003184857364445292660 1.54576191184126754 0.003184857364445292660 1.55479207377325346
0.004009497869020606231 1.94457031833311089 0.004009497869020606231 1.95467619305958973
0.005047658755842121536 2.44588620379090482 0.005047658755842121536 2.45667232619992282
0.006354625877804664924 3.07585062269048315 0.006354625877804664924 3.08645854207893144
0.008000000000009777068 3.86715940152512827 0.008000000000009777068 3.87595518646692705
0.010071403294347192059 4.86064615983784165 0.010071403294347192059 4.86472480975187249
0.012679145539692626699 6.10721446818570701 0.012679145539692626699 6.10162046898675836
0.015962098519750611558 7.67017756777221393 0.015962098519750611558 7.64668775267488243
0.020095091452091651263 9.62806275361615782 0.020095091452091651263 9.57329801222852872
0.025298221281346400247 12.07792777094260117 0.025298221281346400247 11.97044185445803954
0.031848573644282396344 15.13921259543522702 0.031848573644282396344 14.94503261885913048
0.040094978690191851456 18.95810317325710059 0.040094978690191851456 18.62394543012585046
0.050476587558421215363 23.71230184251292528 0.050476587558421215363 23.15533092728343334
0.063546258777947173257 29.61596553411646937 0.063546258777947173257 28.70847376887595104
0.079999999999998294697 36.92436593488184826 0.079999999999998294697 35.47109496310418564
0.100714032943542974863 45.93751999589804313 0.100714032943542974863 43.64251206265292637
0.126791455396897845276 57.00160782338251408 0.126791455396897845276 53.42048143664320037
0.159620985197506115583 70.50641751991534534 0.159620985197506115583 64.97890779691248042
0.200950914520774404082 86.87633352386291108 0.200950914520774404082 78.43307109797051169
0.252982212813464002465 106.55156934959633475 0.252982212813464002465 93.78894708365501742
0.318485736442795541734 129.95560726283781605 0.318485736442795541734 110.87435159205061552
0.400949786901819038576 157.44455884411857483 0.400949786901819038576 129.25349401403192928
0.504765875584169521062 189.23525622588195461 0.504765875584169521062 148.13539180497346592
0.635462587779443310865 225.31279745600866704 0.635462587779443310865 166.30272504388022980
0.799999999999997157829 265.32686153487298952 0.799999999999997157829 182.10995149427708384
1.007140329435330272645 308.50024192343511231 1.007140329435330272645 193.61723400061819689
1.267914553968893187630 353.58954739609811213 1.267914553968893187630 198.91574275669543681
1.596209851975103788391 398.94647406566667769 1.596209851975103788391 196.63208569980255902
2.009509145207687197399 442.71245198501293316 2.009509145207687197399 186.47529628950391611
2.529822128134711078928 483.13012019575523937 2.529822128134711078928 169.57366911134548104
3.184857364427983839050 518.88671189767273972 3.184857364427983839050 148.35530871063829750
4.009497869018190385759 549.36055850276750334 4.009497869018190385759 125.90924218258234646
5.009497869018190385759 573.90885849671428787 5.009497869018190385759 105.64278363282754469
6.009497869018190385759 590.80083243844819663 6.009497869018190385759 91.42693912265605150
7.009497869018204596614 603.23045117751462385 7.009497869018204596614 81.53711398762636975
8.009497869018190385759 612.87109761951433029 8.009497869018190385759 74.57651862707237456
9.009497869018204596614 620.66091620553038410 9.009497869018204596614 69.69838281537568037
10.009497869018190385759 627.15765406964430895 10.009497869018190385759 66.21821398980291917
11.009497869018190385759 632.71097378657805166 11.009497869018190385759 63.39530131341245323
12.009497869018190385759 637.54997520174265446 12.009497869018190385759 61.24283665636336593
13.009497869018190385759 641.83123719804677876 13.009497869018190385759 59.56672193422861028
14.009497869018204596614 645.66556162687959386 14.009497869018204596614 58.23550600225365059
15.009497869018190385759 649.13384471264430431 15.009497869018190385759 57.15818722324650025
16.009497869018190385759 652.29679190621243379 16.009497869018190385759 56.27105677164135500
17.009497869018190385759 655.20108368116143538 17.009497869018190385759 55.54559553646359404
18.009497869018190385759 657.88337671028034492 18.009497869018190385759 54.91043641451746282
19.009497869018204596614 660.37288996869926905 19.009497869018204596614 54.38509790130652988
20.009497869018190385759 662.69341138922777645 20.009497869018190385759 53.90325469474683473
21.009497869018204596614 664.86459387049137604 21.009497869018204596614 53.47879432175584924
22.009497869018190385759 666.90273571398017793 22.009497869018190385759 53.10089174259096723
23.009497869018190385759 668.82163222936367220 23.009497869018190385759 52.76707947318021752
24.009497869018190385759 670.63305057731690795 24.009497869018190385759 52.45778559044735090
25.009497869018190385759 672.34703505767595288 25.009497869018190385759 52.17509609322298303
26.009497869018204596614 673.97236897942570977 26.009497869018204596614 51.92059546298062855
27.009497869018190385759 675.51661469049793141 27.009497869018190385759 51.67813209993707346
28.009497869018190385759 676.98649175615810236 28.009497869018190385759 51.45202046171942811
29.009497869018190385759 678.38785336552564331 29.009497869018190385759 51.24162624585807890
30.009497869018190385759 679.72595367824646928 30.009497869018190385759 51.04134412946824995
31.009497869018190385759 681.00543060652626082 31.009497869018190385759 50.85176761380788690
32.009497869018190385759 682.23046001398347471 32.009497869018190385759 50.67134392986244507
33.009497869018190385759 683.40479103856705478 33.009497869018190385759 50.50005356891036712
34.009497869018190385759 684.53179100666397972 34.009497869018190385759 50.33450690792589910
35.009497869018190385759 685.61453820917256508 35.009497869018190385759 50.17477674297436607
36.009497869018190385759 686.65579702834281761 36.009497869018190385759 50.02093693766086346
37.009497869018190385759 687.65810219799789138 37.009497869018190385759 49.87208570324687429
38.009497869018190385759 688.62377154475177576 38.009497869018190385759 49.72766964312546634
39.009497869018190385759 689.55491405437533103 39.009497869018190385759 49.58614595182299212
40.009497869018190385759 690.45347806591496465 40.009497869018190385759 49.44648801343776512
41.009497869018190385759 691.32125769755873534 41.009497869018190385759 49.31396082459539798
42.009497869018190385759 692.15989984464351892 42.009497869018190385759 49.18134695984296911
43.009497869018190385759 692.97093269954768857 43.009497869018190385759 49.05453945794108250
44.009497869018218807469 693.75577390689727508 44.009497869018218807469 48.92681710216086088
46.009497869018190385759 695.25203474218187694 46.009497869018190385759 48.67894377475178658
48.009497869018190385759 696.65813248477297748 48.009497869018190385759 48.44043261456165084
50.009497869018190385759 697.98229035934616604 50.009497869018190385759 48.20431207186325651
52.009497869018190385759 699.23170000586196693 52.009497869018190385759 47.97487935659513880
54.009497869018190385759 700.41270943329357124 54.009497869018190385759 47.75324374409066763
56.009497869018190385759 701.53091422154261636 56.009497869018190385759 47.53605480289890295
58.009497869018218807469 702.59131764246865259 58.009497869018218807469 47.31276027702806175
60.009497869018190385759 703.59835503603835605 60.009497869018190385759 47.10401017530495693
62.009497869018190385759 704.55603548964211313 62.009497869018190385759 46.89899151727129123
64.009497869018190385759 705.46793982390499878 64.009497869018190385759 46.69749344781894962
66.009497869018190385759 706.33731434717390130 66.009497869018190385759 46.49608587895451706
68.009497869018190385759 707.16710703739954624 68.009497869018190385759 46.29612498016550148
70.009497869018190385759 707.95995952689918340 70.009497869018190385759 46.10584046500289901
72.009497869018218807469 708.71832791283361530 72.009497869018218807469 45.91586353631328166
74.009497869018190385759 709.44442195340286617 74.009497869018190385759 45.73149831846554747
76.009497869018190385759 710.14026346929017564 76.009497869018190385759 45.55098327282848913
78.009497869018190385759 710.80773720200659227 78.009497869018190385759 45.37296019501045663
80.009497869018190385759 711.44854267639323098 80.009497869018190385759 45.19993500620813620
82.009497869018218807469 712.06425152256758793 82.009497869018218807469 45.03135129815952808
84.009497869018190385759 712.65633883639929991 84.009497869018190385759 44.86850554835074689
86.009497869018190385759 713.22613742041664864 86.009497869018190385759 44.70628620200449888
88.009497869018190385759 713.77488231099368932 88.009497869018190385759 44.55061564160956777
91.009497869018218807469 714.56107464693923248 91.009497869018218807469 44.32257132553124279
94.009497869018190385759 715.30606836237166135 94.009497869018190385759 44.10351934367792381
97.009497869018190385759 716.01306508112531901 97.009497869018190385759 43.89180033126120861
99.504748934509109403734 716.57425522971016107 99.504748934509109403734 43.75599683939256579
nan nan nan nan

