Time Pressure difference Time.1 Pressure.1 difference.1
(hr) (psi) (hr) (psi)
0.000200000000006639311 0.15147323086409009 0.000200000000006639311 0.12074904311558665
0.000399999999999067768 0.30286067313023152 0.000399999999999067768 0.31606404169961622
0.000600000000005707079 0.45417540980784632 0.000600000000005707079 0.46243292834944383
0.000799999999998135536 0.60542370758188602 0.000799999999998135536 0.61144301256003097
0.001007140329434719206 0.76200487969893416 0.001007140329434719206 0.76786829655013500
0.001267914553963578328 0.95903643903227942 0.001267914553963578328 0.96618486639090173
0.001596209851982166583 1.20694361317783416 0.001596209851982166583 1.21558639804033009
0.002009509145210586212 1.51882541216185984 0.002009509145210586212 1.52916036067992955
0.002529822128138903281 1.91113333351616399 0.002529822128138903281 1.92330853794402357
0.003184857364445292660 2.40451852953086087 0.003184857364445292660 2.41856544809172780
0.004009497869020606231 3.02488716185150608 0.004009497869020606231 3.04060741142602842
0.005047658755842121536 3.80471187256363041 0.005047658755842121536 3.82149028519987999
0.006354625877804664924 4.78465652418519483 0.006354625877804664924 4.80115773212278274
0.008000000000009777068 6.01558129126131114 0.008000000000009777068 6.02926362339299704
0.010071403294347192059 7.56100513752553205 0.010071403294347192059 7.56734970405846763
0.012679145539692626699 9.50011139495554424 0.012679145539692626699 9.49140961842384634
0.015962098519750611558 11.93138732764566612 0.015962098519750611558 11.89484761527203993
0.020095091452091651263 14.97698650562513301 0.020095091452091651263 14.89179690791104527
0.025298221281346400247 18.78788764368849584 0.025298221281346400247 18.62068732915694724
0.031848573644282396344 23.54988625956590553 0.031848573644282396344 23.24782851822531526
0.040094978690191851456 29.49038271395549060 0.040094978690191851456 28.97058178019576502
0.050476587558421215363 36.88580286613121473 0.050476587558421215363 36.01940366466311616
0.063546258777947173257 46.06927971973673408 0.063546258777947173257 44.65762586269591594
0.079999999999998294697 57.43790256537176475 0.079999999999998294697 55.17725883149539357
0.100714032943542974863 71.45836443806361160 0.100714032943542974863 67.88835209746011401
0.126791455396897845276 88.66916772526168700 0.126791455396897845276 83.09852667922275771
0.159620985197506115583 109.67664947542384368 0.159620985197506115583 101.07830101741942030
0.200950914520774404082 135.14096325934229981 0.200950914520774404082 122.00699948573189602
0.252982212813464002465 165.74688565492763814 0.252982212813464002465 145.89391768568557950
0.318485736442795541734 202.15316685330324731 0.318485736442795541734 172.47121358763428134
0.400949786901819038576 244.91375820196219593 0.400949786901819038576 201.06099068849414380
0.504765875584169521062 294.36595412914971348 0.504765875584169521062 230.43283169662535670
0.635462587779443310865 350.48657382045792019 0.635462587779443310865 258.69312784603590671
0.799999999999997157829 412.73067349869131704 0.799999999999997157829 283.28214676887546375
1.007140329435330272645 479.88926521423240956 1.007140329435330272645 301.18236400096162697
1.267914553968893187630 550.02818483837484109 1.267914553968893187630 309.42448873263731457
1.596209851975103788391 620.58340410214816529 1.596209851975103788391 305.87213331080397438
2.009509145207687197399 688.66381419890910820 2.009509145207687197399 290.07268311700607910
2.529822128134711078928 751.53574252673035971 2.529822128134711078928 263.78126306209293261
3.184857364427983839050 807.15710739637984261 3.184857364427983839050 230.77492466099295143
4.009497869018190385759 854.56086878208282087 4.009497869018190385759 195.85882117290589122
5.009497869018190385759 892.74711321711106393 5.009497869018190385759 164.33321898439842812
6.009497869018190385759 919.02351712647498516 6.009497869018190385759 142.21968307968720069
7.009497869018204596614 938.35847960946728108 7.009497869018204596614 126.83551064741878633
8.009497869018190385759 953.35504074146672338 8.009497869018190385759 116.00791786433478592
9.009497869018204596614 965.47253631971398136 9.009497869018204596614 108.41970660169550911
10.009497869018190385759 975.57857299722445532 10.009497869018190385759 103.00611065080452988
11.009497869018190385759 984.21707033467703241 11.009497869018190385759 98.61491315419713999
12.009497869018190385759 991.74440586937748776 12.009497869018190385759 95.26663479878746443
13.009497869018190385759 998.40414675251724930 13.009497869018190385759 92.65934523102227161
14.009497869018204596614 1004.36865141959037828 14.009497869018204596614 90.58856489239457233
15.009497869018190385759 1009.76375844189124109 15.009497869018190385759 88.91273568060566390
16.009497869018190385759 1014.68389852077496016 16.009497869018190385759 87.53275497810878392
17.009497869018190385759 1019.20168572625107117 17.009497869018190385759 86.40425972338782401
18.009497869018190385759 1023.37414154932503152 18.009497869018190385759 85.41623442258271837
19.009497869018204596614 1027.24671772908777712 19.009497869018204596614 84.59904117981015759
20.009497869018190385759 1030.85641771657674326 20.009497869018190385759 83.84950730293951437
21.009497869018204596614 1034.23381268743105466 21.009497869018204596614 83.18923561162020519
22.009497869018190385759 1037.40425555507999889 22.009497869018190385759 82.60138715514150931
23.009497869018190385759 1040.38920569012134365 23.009497869018190385759 82.08212362494701608
24.009497869018190385759 1043.20696756471534172 24.009497869018190385759 81.60099980736254111
25.009497869018190385759 1045.87316564527372975 25.009497869018190385759 81.16126058945796728
26.009497869018204596614 1048.40146285688433636 26.009497869018204596614 80.76537072019208097
27.009497869018190385759 1050.80362285188584792 27.009497869018190385759 80.38820548879100159
28.009497869018190385759 1053.09009828735702285 28.009497869018190385759 80.03647627378578022
29.009497869018190385759 1055.26999412415125335 29.009497869018190385759 79.70919638244589578
30.009497869018190385759 1057.35148349949463409 30.009497869018190385759 79.39764642361727454
31.009497869018190385759 1059.34178094348544619 31.009497869018190385759 79.10274962147893518
32.009497869018190385759 1061.24738224397447084 32.009497869018190385759 78.82209055756379712
33.009497869018190385759 1063.07411939332655493 33.009497869018190385759 78.55563888497168534
34.009497869018190385759 1064.82723045481066038 34.009497869018190385759 78.29812185677360503
35.009497869018190385759 1066.51150388093492438 35.009497869018190385759 78.04965271129346149
36.009497869018190385759 1068.13123982186652938 36.009497869018190385759 77.81034634747246059
37.009497869018190385759 1069.69038119688593724 37.009497869018190385759 77.57879998282845690
38.009497869018190385759 1071.19253351405836838 38.009497869018190385759 77.35415277819515723
39.009497869018190385759 1072.64097741791715634 39.009497869018190385759 77.13400481394687347
40.009497869018190385759 1074.03874365808997027 40.009497869018190385759 76.91675913201430603
41.009497869018190385759 1075.38862308509123977 41.009497869018190385759 76.71060572714839054
42.009497869018190385759 1076.69317753611198896 42.009497869018190385759 76.50431749308906149
43.009497869018190385759 1077.95478419929645497 43.009497869018190385759 76.30706137901947272
44.009497869018218807469 1079.17564829961793293 44.009497869018218807469 76.10838215891689629
46.009497869018190385759 1081.50316515450504085 46.009497869018190385759 75.72280142739165854
48.009497869018190385759 1083.69042830964690438 48.009497869018190385759 75.35178406709590604
50.009497869018190385759 1085.75022944787178858 50.009497869018190385759 74.98448544512064018
52.009497869018190385759 1087.69375556467412025 52.009497869018190385759 74.62759011025910638
54.009497869018190385759 1089.53088134067888859 54.009497869018190385759 74.28282360191883527
56.009497869018190385759 1091.27031101128864066 56.009497869018190385759 73.94497413784273476
58.009497869018218807469 1092.91982744384017678 58.009497869018218807469 73.59762709759921506
60.009497869018190385759 1094.48633005605961444 60.009497869018190385759 73.27290471714104569
62.009497869018190385759 1095.97605520611000429 62.009497869018190385759 72.95398680464423080
64.009497869018190385759 1097.39457305940800325 64.009497869018190385759 72.64054536327392952
66.009497869018190385759 1098.74693342893715453 66.009497869018190385759 72.32724470059591226
68.009497869018190385759 1100.03772205817699614 68.009497869018190385759 72.01619441359078166
70.009497869018190385759 1101.27104815295433582 70.009497869018190385759 71.72019627889339688
72.009497869018218807469 1102.45073230885213889 72.009497869018218807469 71.42467661204288731
74.009497869018190385759 1103.58021192751562012 74.009497869018190385759 71.13788627316861835
76.009497869018190385759 1104.66263206334042479 76.009497869018190385759 70.85708509106653707
78.009497869018190385759 1105.70092453645474961 78.009497869018190385759 70.58016030334960078
80.009497869018190385759 1106.69773305216722292 80.009497869018190385759 70.31101000965711023
82.009497869018218807469 1107.65550236843841958 82.009497869018218807469 70.04876868602593731
84.009497869018190385759 1108.57652707884335541 84.009497869018190385759 69.79545307521227926
86.009497869018190385759 1109.46288043175923121 86.009497869018190385759 69.54311186978478077
88.009497869018190385759 1110.31648359487894595 88.009497869018190385759 69.30095766472599905
91.009497869018218807469 1111.53944945079456375 91.009497869018218807469 68.94622206193747616
94.009497869018190385759 1112.69832856368930152 94.009497869018190385759 68.60547453461009582
97.009497869018190385759 1113.79810123730612759 97.009497869018190385759 68.27613384862854673
99.504748934509109403734 1114.67106369066027582 99.504748934509109403734 68.06488397238842936
nan nan nan nan

