Time Pressure difference Time.1 Pressure.1 difference.1
(hr) (psi) (hr) (psi)
0.000200000000006639311 0.22055168230210920 0.000200000000006639311 0.17581591442654101
0.000399999999999067768 0.44097845263467766 0.000399999999999067768 0.46020313763955112
0.000600000000005707079 0.66129936043450155 0.000600000000005707079 0.67332267039891547
0.000799999999998135536 0.88152353027032848 0.000799999999998135536 0.89028790290334181
0.001007140329434719206 1.10951259956163484 0.001007140329434719206 1.11804999222959234
0.001267914553963578328 1.39639921067886852 0.001267914553963578328 1.40680763512960971
0.001596209851982166583 1.75736295325343983 0.001596209851982166583 1.76994722791586501
0.002009509145210586212 2.21147656166424644 0.002009509145210586212 2.22652470099000732
0.002529822128138903281 2.78269413946034838 0.002529822128138903281 2.80042177228113331
0.003184857364445292660 3.50108467211911023 0.003184857364445292660 3.52153760299070218
0.004009497869020606231 4.40436866972884111 0.004009497869020606231 4.42725804410932700
0.005047658755842121536 5.53982772653495559 0.005047658755842121536 5.56425783284597930
0.006354625877804664924 6.96667021378613605 0.006354625877804664924 6.99069669787108516
0.008000000000009777068 8.75895078123212834 0.008000000000009777068 8.77887285823705632
0.010071403294347192059 11.00915583211135029 0.010071403294347192059 11.01839379986535228
0.012679145539692626699 13.83257977836933605 0.012679145539692626699 13.81990960924351164
0.015962098519750611558 17.37262440563791799 0.015962098519750611558 17.31942097828071780
0.020095091452091651263 21.80715068126736611 0.020095091452091651263 21.68311088239795126
0.025298221281346400247 27.35599025042555255 0.025298221281346400247 27.11253924300324769
0.031848573644282396344 34.28966955376354520 0.031848573644282396344 33.84986020510828553
0.040094978690191851456 42.93929351207805212 0.040094978690191851456 42.18244050413119339
0.050476587558421215363 53.70735032705918854 0.050476587558421215363 52.44583500624025163
0.063546258777947173257 67.07889629522105679 0.063546258777947173257 65.02346622865066195
0.079999999999998294697 83.63211087815119527 0.079999999999998294697 80.34051423267186465
0.100714032943542974863 104.04651964882889104 0.100714032943542974863 98.84842475729081457
0.126791455396897845276 129.10620575381508957 0.126791455396897845276 120.99510752743972830
0.159620985197506115583 159.69402258784242576 0.159620985197506115583 147.17444928360521317
0.200950914520774404082 196.77118276772370109 0.200950914520774404082 177.64755419625799959
0.252982212813464002465 241.33475109096605138 0.252982212813464002465 212.42795706981692661
0.318485736442795541734 294.34389679189757771 0.318485736442795541734 251.12566813584109582
0.400949786901819038576 356.60519738197797324 0.400949786901819038576 292.75364028819200257
0.504765875584169521062 428.60976837486089153 0.504765875584169521062 335.52033186596554515
0.635462587779443310865 510.32385748583163831 0.635462587779443310865 376.66856527032700797
0.799999999999997157829 600.95400262172086059 0.799999999999997157829 412.47125765797801478
1.007140329435330272645 698.73986418555819000 1.007140329435330272645 438.53476077063095317
1.267914553968893187630 800.86521418774350423 1.267914553968893187630 450.53565667114776261
1.596209851975103788391 903.59671476411688218 1.596209851975103788391 445.36327102946734158
2.009509145207687197399 1002.72478441049952380 2.009509145207687197399 422.35857706597045080
2.529822128134711078928 1094.26907565705232628 2.529822128134711078928 384.07711379920129957
3.184857364427983839050 1175.25622780242110821 3.184857364427983839050 336.01843425913807550
4.009497869018190385759 1244.27818806182381195 4.009497869018190385759 285.17905280670362345
5.009497869018190385759 1299.87903847546408542 5.009497869018190385759 239.27639027948120543
6.009497869018190385759 1338.13863757426292977 6.009497869018190385759 207.07810997866542380
7.009497869018204596614 1366.29119283796057971 7.009497869018204596614 184.67807868992298381
8.009497869018190385759 1388.12684503565219529 8.009497869018190385759 168.91262765960834713
9.009497869018204596614 1405.77045123474817956 9.009497869018204596614 157.86385851345775677
10.009497869018190385759 1420.48528485859628745 10.009497869018190385759 149.98142484869890723
11.009497869018190385759 1433.06331669609562596 11.009497869018190385759 143.58764827396836949
12.009497869018190385759 1444.02344810651106854 12.009497869018190385759 138.71240781142131482
13.009497869018190385759 1453.72032356822546717 13.009497869018190385759 134.91607959462035637
14.009497869018204596614 1462.40490453951360905 14.009497869018204596614 131.90093239826683202
15.009497869018190385759 1470.26041751154480153 15.009497869018190385759 129.46085140307968686
16.009497869018190385759 1477.42435773629313189 16.009497869018190385759 127.45153884175179826
17.009497869018190385759 1484.00245449151952926 17.009497869018190385759 125.80840014669105642
18.009497869018190385759 1490.07773357456676422 18.009497869018190385759 124.36979187903527588
19.009497869018204596614 1495.71637471542999265 19.009497869018204596614 123.17992259697633983
20.009497869018190385759 1500.97225656534510563 20.009497869018190385759 122.08856832570863560
21.009497869018204596614 1505.88989209983083128 21.009497869018204596614 121.12718372021625157
22.009497869018190385759 1510.50619627525406941 22.009497869018190385759 120.27125052809064698
23.009497869018190385759 1514.85241487847315511 23.009497869018190385759 119.51518000335691738
24.009497869018190385759 1518.95520002554712846 24.009497869018190385759 118.81464257665425066
25.009497869018190385759 1522.83730162636015848 25.009497869018190385759 118.17436294618879344
26.009497869018204596614 1526.51861350040849175 26.009497869018204596614 117.59792989478518166
27.009497869018190385759 1530.01626404258081493 27.009497869018190385759 117.04876073917370150
28.009497869018190385759 1533.34547278104196266 28.009497869018190385759 116.53662754150127512
29.009497869018190385759 1536.51949693901133287 29.009497869018190385759 116.06009363378110777
30.009497869018190385759 1539.55023696354965068 30.009497869018190385759 115.60646319922294367
31.009497869018190385759 1542.44819752760236042 31.009497869018190385759 115.17708049281273475
32.009497869018190385759 1545.22283678380881611 32.009497869018190385759 114.76842855909015384
33.009497869018190385759 1547.88264636940402852 33.009497869018190385759 114.38046321163459140
34.009497869018190385759 1550.43525313475174698 34.009497869018190385759 114.00550709914840297
35.009497869018190385759 1552.88762927718562423 35.009497869018190385759 113.64372510160860941
36.009497869018190385759 1555.24603600436603301 36.009497869018190385759 113.29528451692418400
37.009497869018190385759 1557.51621438008078258 37.009497869018190385759 112.95814283214035356
38.009497869018190385759 1559.70341418255748067 38.009497869018190385759 112.63104662759185715
39.009497869018190385759 1561.81241217443994174 39.009497869018190385759 112.31050151481277055
40.009497869018190385759 1563.84762126040573094 40.009497869018190385759 111.99418225265819160
41.009497869018190385759 1565.81310504147927531 41.009497869018190385759 111.69401383348528611
42.009497869018190385759 1567.71259366521826450 42.009497869018190385759 111.39364909708022822
43.009497869018190385759 1569.54954842205233945 43.009497869018190385759 111.10643552439648829
44.009497869018218807469 1571.32718021647679052 44.009497869018218807469 110.81714984677461189
46.009497869018190385759 1574.71614706562559149 46.009497869018190385759 110.25572735307028438
48.009497869018190385759 1577.90089836294737324 48.009497869018190385759 109.71550976802424771
50.009497869018190385759 1580.90005936091233707 50.009497869018190385759 109.18070682943388761
52.009497869018190385759 1583.72991881669577197 52.009497869018190385759 108.66105153416847884
54.009497869018190385759 1586.40485469934014873 54.009497869018190385759 108.15905634345324415
56.009497869018190385759 1588.93754075819515492 56.009497869018190385759 107.66713267323255820
58.009497869018218807469 1591.33930919020667716 58.009497869018218807469 107.16138011463621638
60.009497869018190385759 1593.62020585085610946 60.009497869018190385759 106.68857005517789105
62.009497869018190385759 1595.78931115175373634 62.009497869018190385759 106.22421155621275091
64.009497869018190385759 1597.85473549858852493 64.009497869018190385759 105.76782703993181656
66.009497869018190385759 1599.82383164103453055 66.009497869018190385759 105.31164750361493532
68.009497869018190385759 1601.70327662317004069 68.009497869018190385759 104.85874461319536977
70.009497869018190385759 1603.49905362930144292 70.009497869018190385759 104.42775831816896925
72.009497869018218807469 1605.21672561453738126 72.009497869018218807469 103.99746869335915278
74.009497869018190385759 1606.86129758676725032 74.009497869018190385759 103.57988935378946849
76.009497869018190385759 1608.43734888343487910 76.009497869018190385759 103.17103048973973500
78.009497869018190385759 1609.94914836351927079 78.009497869018190385759 102.76781582630572132
80.009497869018190385759 1611.40054537815558433 80.009497869018190385759 102.37592116790732177
82.009497869018218807469 1612.79509960239670363 82.009497869018218807469 101.99408627360919866
84.009497869018190385759 1614.13615206534859681 84.009497869018190385759 101.62524760951237113
86.009497869018190385759 1615.42672150778116702 86.009497869018190385759 101.25782772248882679
88.009497869018190385759 1616.66960523430202556 88.009497869018190385759 100.90524055578235618
91.009497869018218807469 1618.45029727725568591 91.009497869018218807469 100.38872992534854234
94.009497869018190385759 1620.13767620537169023 94.009497869018190385759 99.89258654764657308
97.009497869018190385759 1621.73899355981370718 97.009497869018190385759 99.41305203234375654
99.504748934509109403734 1623.01006526387345730 99.504748934509109403734 99.10546292682931835
nan nan nan nan

