Time Pressure difference Time.1 Pressure.1 difference.1
(hr) (psi) (hr) (psi)
0.000200000000006639311 0.41447070862811464 0.000200000000006639311 0.33040122786572612
0.000399999999999067768 0.82870667702667733 0.000399999999999067768 0.86483457563960919
0.000600000000005707079 1.24274370375993115 0.000600000000005707079 1.26533845229682984
0.000799999999998135536 1.65659893613065523 0.000799999999998135536 1.67306934205986502
0.001007140329434719206 2.08504631917620431 0.001007140329434719206 2.10109017407674337
0.001267914553963578328 2.62417662987953415 0.001267914553963578328 2.64373661243224767
0.001596209851982166583 3.30251604045363401 0.001596209851982166583 3.32616497925321042
0.002009509145210586212 4.15590689701431959 0.002009509145210586212 4.18418604186046661
0.002529822128138903281 5.22936483566510812 0.002529822128138903281 5.26267940602265760
0.003184857364445292660 6.57939685552949705 0.003184857364445292660 6.61783292939384804
0.004009497869020606231 8.27688904726401020 0.004009497869020606231 8.31990379609979236
0.005047658755842121536 10.41069512382795459 0.005047658755842121536 10.45660528587659677
0.006354625877804664924 13.09208213760564377 0.006354625877804664924 13.13723379448981277
0.008000000000009777068 16.46021693982490319 0.008000000000009777068 16.49765540906435746
0.010071403294347192059 20.68890416751491657 0.010071403294347192059 20.70626457484130256
0.012679145539692626699 25.99481030048275088 0.012679145539692626699 25.97099994491799535
0.015962098519750611558 32.64742246795352543 0.015962098519750611558 32.54744017805206369
0.020095091452091651263 40.98098505385338797 0.020095091452091651263 40.74788384692143239
0.025298221281346400247 51.40861564042235443 0.025298221281346400247 50.95111148307780269
0.031848573644282396344 64.43869976518583087 0.031848573644282396344 63.61219012129784289
0.040094978690191851456 80.69346478873535489 0.040094978690191851456 79.27115234361258445
0.050476587558421215363 100.92928476556784290 0.050476587558421215363 98.55858804946281282
0.063546258777947173257 126.05769945290599310 0.063546258777947173257 122.19504219572840498
0.079999999999998294697 157.16524987667659730 0.079999999999998294697 150.97953240705882649
0.100714032943542974863 195.52893126459167661 0.100714032943542974863 185.76043595898423177
0.126791455396897845276 242.62222817132044383 0.126791455396897845276 227.37948508930182356
0.159620985197506115583 300.10423867451140723 0.159620985197506115583 276.57688959711470034
0.200950914520774404082 369.78131705028829401 0.200950914520774404082 333.84332826315653620
0.252982212813464002465 453.52719261623053626 0.252982212813464002465 399.20423630478802579
0.318485736442795541734 553.14437963156603928 0.318485736442795541734 471.92672728924100056
0.400949786901819038576 670.14863508009432280 0.400949786901819038576 550.15589759818726634
0.504765875584169521062 805.46288547426684090 0.504765875584169521062 630.52500101604084648
0.635462587779443310865 959.02370199224208136 0.635462587779443310865 707.85262454574649382
0.799999999999997157829 1129.33997473817726132 0.799999999999997157829 775.13466533461530616
1.007140329435330272645 1313.10359382795468264 1.007140329435330272645 824.11438061801584354
1.267914553968893187630 1505.02217609621243355 1.267914553968893187630 846.66700763106257455
1.596209851975103788391 1698.07986397181207394 1.596209851975103788391 836.94682631198020317
2.009509145207687197399 1884.36582126954249361 2.009509145207687197399 793.71536369378600284
2.529822128134711078928 2056.39999878193248151 2.529822128134711078928 721.77510442264997437
3.184857364427983839050 2208.59472243624804833 3.184857364427983839050 631.46105758887074444
4.009497869018190385759 2338.30391567844617384 4.009497869018190385759 535.92138980278639337
5.009497869018190385759 2442.79155155011721945 5.009497869018190385759 449.65902777049677752
6.009497869018190385759 2514.69072268672834980 6.009497869018190385759 389.15056139386933864
7.009497869018204596614 2567.59627937096001915 7.009497869018204596614 347.05540825502509961
8.009497869018190385759 2608.63082576511214938 8.009497869018190385759 317.42825877164136728
9.009497869018204596614 2641.78748949020609871 9.009497869018204596614 296.66491147057342914
10.009497869018190385759 2669.44027116822962853 10.009497869018190385759 281.85188518736629248
11.009497869018190385759 2693.07747816851178868 11.009497869018190385759 269.83641071862734861
12.009497869018190385759 2713.67425342280193945 12.009497869018190385759 260.67463807580304547
13.009497869018190385759 2731.89706089425044411 13.009497869018190385759 253.54040618158842335
14.009497869018204596614 2748.21751871953892987 14.009497869018204596614 247.87420503523350135
15.009497869018190385759 2762.97995441792227211 15.009497869018190385759 243.28869433484408091
16.009497869018190385759 2776.44275529310925776 16.009497869018190385759 239.51270318185808605
17.009497869018190385759 2788.80461259161029375 17.009497869018190385759 236.42484253981942288
18.009497869018190385759 2800.22155215144994145 18.009497869018190385759 233.72134473871534510
19.009497869018204596614 2810.81794191805329319 19.009497869018204596614 231.48528850299703663
20.009497869018190385759 2820.69503309261108370 20.009497869018190385759 229.43436613661472734
21.009497869018204596614 2829.93647647439911452 21.009497869018204596614 227.62768865157619302
22.009497869018190385759 2838.61164432104351363 22.009497869018190385759 226.01918023769488286
23.009497869018190385759 2846.77925513011177827 23.009497869018190385759 224.59833827045940779
24.009497869018190385759 2854.48939476499026568 24.009497869018190385759 223.28185661575025733
25.009497869018190385759 2861.78481588651857237 25.009497869018190385759 222.07861414038498538
26.009497869018204596614 2868.70290386114493231 26.009497869018204596614 220.99535504755857573
27.009497869018190385759 2875.27584714417116629 27.009497869018190385759 219.96333150229625630
28.009497869018190385759 2881.53224696210918410 28.009497869018190385759 219.00090760629294095
29.009497869018190385759 2887.49701688916093190 29.009497869018190385759 218.10538350801130036
30.009497869018190385759 2893.19252078433146380 30.009497869018190385759 217.25290065363407166
31.009497869018190385759 2898.63849950470148542 31.009497869018190385759 216.44598522800282581
32.009497869018190385759 2903.85272723900698111 32.009497869018190385759 215.67802800915811190
33.009497869018190385759 2908.85116185646484155 33.009497869018190385759 214.94894595997746478
34.009497869018190385759 2913.64813607964651965 34.009497869018190385759 214.24431145424867395
35.009497869018190385759 2918.25675237750374436 35.009497869018190385759 213.56443434189091590
36.009497869018190385759 2922.68877709499747652 36.009497869018190385759 212.90962901671034047
37.009497869018190385759 2926.95499909917089099 37.009497869018190385759 212.27605709587129468
38.009497869018190385759 2931.06528401099467374 38.009497869018190385759 211.66136309638017110
39.009497869018190385759 2935.02860853913625760 39.009497869018190385759 211.05898020519529723
40.009497869018190385759 2938.85326561389456401 40.009497869018190385759 210.46453872386331341
41.009497869018190385759 2942.54689173832684901 41.009497869018190385759 209.90044863802143027
42.009497869018190385759 2946.11649677463674379 42.009497869018190385759 209.33598962394697196
43.009497869018190385759 2949.56858533653667109 43.009497869018190385759 208.79624487226206497
44.009497869018218807469 2952.90919150115269076 44.009497869018218807469 208.25260612714623676
46.009497869018190385759 2959.27789146672239440 46.009497869018190385759 207.19755555407169823
48.009497869018190385759 2965.26282031980281317 48.009497869018190385759 206.18235420557010684
50.009497869018190385759 2970.89897947824283619 50.009497869018190385759 205.17732830587951298
52.009497869018190385759 2976.21697951213036504 52.009497869018190385759 204.20076854345623474
54.009497869018190385759 2981.24384015196756081 54.009497869018190385759 203.25739644920645333
56.009497869018190385759 2986.00337848143817610 56.009497869018190385759 202.33295121233894065
58.009497869018218807469 2990.51689047819991174 58.009497869018218807469 201.38251810222200788
60.009497869018190385759 2994.80325476877851543 60.009497869018190385759 200.49399202822110055
62.009497869018190385759 2998.87953567386148279 62.009497869018190385759 199.62134850941112063
64.009497869018190385759 3002.76097463508313012 64.009497869018190385759 198.76369005994735062
66.009497869018190385759 3006.46138927258607509 66.009497869018190385759 197.90641681811410990
68.009497869018190385759 3009.99332738995735781 68.009497869018190385759 197.05530119762752861
70.009497869018190385759 3013.36803285808355213 70.009497869018190385759 196.24537223565334898
72.009497869018218807469 3016.59595983411190900 72.009497869018218807469 195.43675248789756438
74.009497869018190385759 3019.68651395550932648 74.009497869018190385759 194.65201848372512927
76.009497869018190385759 3022.64830092056854483 76.009497869018190385759 193.88367239203918757
78.009497869018190385759 3025.48934296238758179 78.009497869018190385759 193.12593313773680848
80.009497869018190385759 3028.21687395593016845 80.009497869018190385759 192.38946694950129768
82.009497869018218807469 3030.83758340374924956 82.009497869018218807469 191.67190552549953964
84.009497869018190385759 3033.35774991903281261 84.009497869018190385759 190.97876720580060805
86.009497869018190385759 3035.78304645613252433 86.009497869018190385759 190.28829511622430459
88.009497869018190385759 3038.11872983653711344 88.009497869018190385759 189.62569734633814278
91.009497869018218807469 3041.46508695876718775 91.009497869018218807469 188.65504718046631183
94.009497869018190385759 3044.63608585009478702 94.009497869018190385759 187.72267207821883517
97.009497869018190385759 3047.64535393504638705 97.009497869018190385759 186.82150910229128726
99.504748934509109403734 3050.03400943927908884 99.504748934509109403734 186.24347372664527711
nan nan nan nan

