Time Pressure difference Time.1 Pressure.1 difference.1
(hr) (psi) (hr) (psi)
0.000200000000006639311 0.82394779426070974 0.000200000000006639311 0.65682171804632294
0.000399999999999067768 1.64742893625785247 0.000399999999999067768 1.71924945759681358
0.000600000000005707079 2.47051459181191158 0.000600000000005707079 2.51543186299972232
0.000799999999998135536 3.29323884893443486 0.000799999999998135536 3.32598122216720160
0.001007140329434719206 4.14497159836233386 0.001007140329434719206 4.17686600870677882
0.001267914553963578328 5.21673667385690454 0.001267914553963578328 5.25562097652193838
0.001596209851982166583 6.56524273102228495 0.001596209851982166583 6.61225568164794897
0.002009509145210586212 8.26174262659473158 0.002009509145210586212 8.31796020369851874
0.002529822128138903281 10.39572527571979244 0.002529822128138903281 10.46195303606913996
0.003184857364445292660 13.07952386942610978 0.003184857364445292660 13.15593293192752888
0.004009497869020606231 16.45405653974171045 0.004009497869020606231 16.53956778742729483
0.005047658755842121536 20.69596018592304532 0.005047658755842121536 20.78722737553781030
0.006354625877804664924 26.02642834584254672 0.006354625877804664924 26.11618766374480316
0.008000000000009777068 32.72211801290493582 0.008000000000009777068 32.79654388548937760
0.010071403294347192059 41.12854442939712385 0.010071403294347192059 41.16305608251584403
0.012679145539692626699 51.67643011541751719 0.012679145539692626699 51.62909627604179974
0.015962098519750611558 64.90150249653412118 0.015962098519750611558 64.70274252263362769
0.020095091452091651263 81.46822329982902033 0.020095091452091651263 81.00482933424139276
0.025298221281346400247 102.19785036951432744 0.025298221281346400247 101.28835415310648216
0.031848573644282396344 128.10102965368270134 0.031848573644282396344 126.45796831342342159
0.040094978690191851456 160.41471915832931927 0.040094978690191851456 157.58723056260333806
0.050476587558421215363 200.64255405203246596 0.050476587558421215363 195.92972323085979269
0.063546258777947173257 250.59663144252397160 0.063546258777947173257 242.91785496741186989
0.079999999999998294697 312.43694252592331395 0.079999999999998294697 300.14003430318922483
0.100714032943542974863 388.70209227298346377 0.100714032943542974863 369.28279437629402082
0.126791455396897845276 482.32129696708278743 0.126791455396897845276 452.01945831005781429
0.159620985197506115583 596.59276363005278654 0.159620985197506115583 549.82152751233638810
0.200950914520774404082 735.10743750960921261 0.200950914520774404082 663.66444775205809492
0.252982212813464002465 901.59020218889202170 0.252982212813464002465 793.59878301554249447
0.318485736442795541734 1099.62436914708905533 0.318485736442795541734 938.16759039427438438
0.400949786901819038576 1332.22319021946464090 0.400949786901819038576 1093.68341088796250915
0.504765875584169521062 1601.22139883438603647 0.504765875584169521062 1253.45331527285225093
0.635462587779443310865 1906.49290155084258913 0.635462587779443310865 1407.17690421744782725
0.799999999999997157829 2245.07344375661750746 0.799999999999997157829 1540.93035879772924091
1.007140329435330272645 2610.38666242906629122 1.007140329435330272645 1638.29967231292312135
1.267914553968893187630 2991.91155489006087009 1.267914553968893187630 1683.13320794126889268
1.596209851975103788391 3375.70093440179471145 1.596209851975103788391 1663.80995592140629924
2.009509145207687197399 3746.02843987318647123 2.009509145207687197399 1577.86789168041786979
2.529822128134711078928 4088.02409396408302200 2.529822128134711078928 1434.85412324984622501
3.184857364427983839050 4390.57986990338486066 3.184857364427983839050 1255.31415062847804620
4.009497869018190385759 4648.43549502341738844 4.009497869018190385759 1065.38589539108147619
5.009497869018190385759 4856.15187958758269815 5.009497869018190385759 893.90047689315622392
6.009497869018190385759 4999.08396678686949599 6.009497869018190385759 773.61256180708960528
7.009497869018204596614 5104.25766380973891501 7.009497869018204596614 689.92942604914617277
8.009497869018190385759 5185.83236447281342407 8.009497869018190385759 631.03208069061236074
9.009497869018204596614 5251.74621404679601255 9.009497869018204596614 589.75554689933267127
10.009497869018190385759 5306.71861135852850566 10.009497869018190385759 560.30796452910158223
11.009497869018190385759 5353.70823973258393380 11.009497869018190385759 536.42178034425921851
12.009497869018190385759 5394.65363632243770553 12.009497869018190385759 518.20861786153614048
13.009497869018190385759 5430.87969936808804050 13.009497869018190385759 504.02610867424203889
14.009497869018204596614 5463.32398299667329411 14.009497869018204596614 492.76197386522329680
15.009497869018190385759 5492.67099372237498756 15.009497869018190385759 483.64619958131652311
16.009497869018190385759 5519.43439305256742955 16.009497869018190385759 476.13971114465766732
17.009497869018190385759 5544.00916960982704040 17.009497869018190385759 470.00119300084583074
18.009497869018190385759 5566.70549524083435244 18.009497869018190385759 464.62676966130163692
19.009497869018204596614 5587.77060742745470634 19.009497869018204596614 460.18159762643989552
20.009497869018190385759 5607.40578867808198993 20.009497869018190385759 456.10446280170395994
21.009497869018204596614 5625.77733275031187077 21.009497869018204596614 452.51287503024184389
22.009497869018190385759 5643.02314834906246688 22.009497869018190385759 449.31523782192357430
23.009497869018190385759 5659.25996501769259339 23.009497869018190385759 446.49067246537111942
24.009497869018190385759 5674.58735103883645934 24.009497869018190385759 443.87357038070831550
25.009497869018190385759 5689.09029664187346498 25.009497869018190385759 441.48158232727138284
26.009497869018204596614 5702.84312213360135502 26.009497869018204596614 439.32811545598991643
27.009497869018190385759 5715.90981661190562590 27.009497869018190385759 437.27650238408290306
28.009497869018190385759 5728.34723793672310421 28.009497869018190385759 435.36325006070285326
29.009497869018190385759 5740.20491309290991921 29.009497869018190385759 433.58299131110680946
30.009497869018190385759 5751.52730035439344647 30.009497869018190385759 431.88829648011596873
31.009497869018190385759 5762.35364359368486475 31.009497869018190385759 430.28418750145135618
32.009497869018190385759 5772.71927704139943671 32.009497869018190385759 428.75752556037451768
33.009497869018190385759 5782.65592417248990387 33.009497869018190385759 427.30814558308770756
34.009497869018190385759 5792.19207774869482819 34.009497869018190385759 425.90736614398832671
35.009497869018190385759 5801.35378484684406430 35.009497869018190385759 424.55580320978310738
36.009497869018190385759 5810.16443639367025753 36.009497869018190385759 423.25408178020728656
37.009497869018190385759 5818.64548013690637163 37.009497869018190385759 421.99457133516585827
38.009497869018190385759 5826.81652845559256093 38.009497869018190385759 420.77258928798465831
39.009497869018190385759 5834.69542661394552852 39.009497869018190385759 419.57508113080996281
40.009497869018190385759 5842.29866055774164124 40.009497869018190385759 418.39336011370420465
41.009497869018190385759 5849.64141128703613504 41.009497869018190385759 417.27197620811489287
42.009497869018190385759 5856.73761407005986257 42.009497869018190385759 416.14985889097897598
43.009497869018190385759 5863.60019976540297648 43.009497869018190385759 415.07687233642457159
44.009497869018218807469 5870.24116382759257249 44.009497869018218807469 413.99614471059192056
46.009497869018190385759 5882.90183243384581147 46.009497869018190385759 411.89875501713044059
48.009497869018190385759 5894.79958256346435519 48.009497869018190385759 409.88058366167547319
50.009497869018190385759 5906.00399534831376513 50.009497869018190385759 407.88264060807375699
52.009497869018190385759 5916.57592312652377586 52.009497869018190385759 405.94128686349733925
54.009497869018190385759 5926.56907982017582981 54.009497869018190385759 404.06590860384415009
56.009497869018190385759 5936.03081264382308291 56.009497869018190385759 402.22815602452919848
58.009497869018218807469 5945.00345697473494511 58.009497869018218807469 400.33874080562202380
60.009497869018190385759 5953.52454261263210356 60.009497869018190385759 398.57239379104191812
62.009497869018190385759 5961.62799260466454143 62.009497869018190385759 396.83762053075707854
64.009497869018190385759 5969.34410620227299660 64.009497869018190385759 395.13263686616039649
66.009497869018190385759 5976.70035216839369241 66.009497869018190385759 393.42841897576897736
68.009497869018190385759 5983.72167493184224440 68.009497869018190385759 391.73644213986193563
70.009497869018190385759 5990.43042676607001340 70.009497869018190385759 390.12634239617835874
72.009497869018218807469 5996.84739003166760085 72.009497869018218807469 388.51884530726624689
74.009497869018190385759 6002.99126268263898965 74.009497869018190385759 386.95883192547768203
76.009497869018190385759 6008.87915243245606689 76.009497869018190385759 385.43139692393333462
78.009497869018190385759 6014.52700709390228440 78.009497869018190385759 383.92504780393466035
80.009497869018190385759 6019.94920726178952464 80.009497869018190385759 382.46098851406884478
82.009497869018218807469 6025.15905134480271954 82.009497869018218807469 381.03451098442678813
84.009497869018190385759 6030.16902092337841168 84.009497869018190385759 379.65658540912164653
86.009497869018190385759 6034.99039355737204460 86.009497869018190385759 378.28396017080734737
88.009497869018190385759 6039.63361955456184660 88.009497869018190385759 376.96674773669633396
91.009497869018218807469 6046.28601624333259679 91.009497869018218807469 375.03714198526438395
94.009497869018190385759 6052.58980922006776382 94.009497869018190385759 373.18362521573624235
97.009497869018190385759 6058.57208914798320620 97.009497869018190385759 371.39215664913331238
99.504748934509109403734 6063.32062117447003402 99.504748934509109403734 370.24305017947557417
nan nan nan nan

