Time Pressure difference Time.1 Pressure.1 difference.1
(hr) (psi) (hr) (psi)
0.000200000000006639311 0.37285718366545251 0.000200000000006639311 0.29722841382298254
0.000399999999999067768 0.74550319539749288 0.000399999999999067768 0.77800379495290151
0.000600000000005707079 1.11797023952700636 0.000600000000005707079 1.13829643901401556
0.000799999999998135536 1.49027374174002714 0.000799999999998135536 1.50509049245546089
0.001007140329434719206 1.87570431925891468 0.001007140329434719206 1.89013734535417854
0.001267914553963578328 2.36070508069484175 0.001267914553963578328 2.37830120957760416
0.001596209851982166583 2.97093812474543784 0.001596209851982166583 2.99221267209927388
0.002009509145210586212 3.73864716839842393 0.002009509145210586212 3.76408704167367247
0.002529822128138903281 4.70432820557824982 0.002529822128138903281 4.73429793955451927
0.003184857364445292660 5.91881484192211804 0.003184857364445292660 5.95339187222579014
0.004009497869020606231 7.44587609071140033 0.004009497869020606231 7.48457208966406995
0.005047658755842121536 9.36544460938739753 0.005047658755842121536 9.40674531741509057
0.006354625877804664924 11.77761605953278945 0.006354625877804664924 11.81823441753300230
0.008000000000009777068 14.80758471695092027 0.008000000000009777068 14.84126430373660810
0.010071403294347192059 18.61170495390900115 0.010071403294347192059 18.62732234845161372
0.012679145539692626699 23.38488958758287595 0.012679145539692626699 23.36346982996639099
0.015962098519750611558 29.36956880651240454 0.015962098519750611558 29.27962489913117139
0.020095091452091651263 36.86642832153879112 0.020095091452091651263 36.65673085024257460
0.025298221281346400247 46.24710804600244529 0.025298221281346400247 45.83553804100171902
0.031848573644282396344 57.96895079277761909 0.031848573644282396344 57.22542404486230794
0.040094978690191851456 72.59171129589044824 0.040094978690191851456 71.31220130509726118
0.050476587558421215363 90.79582243970760658 0.050476587558421215363 88.66314748224766618
0.063546258777947173257 113.40130392550580041 0.063546258777947173257 109.92646366202073693
0.079999999999998294697 141.38560631476124740 0.079999999999998294697 135.82094481598866764
0.100714032943542974863 175.89751246292584597 0.100714032943542974863 167.10978977836333570
0.126791455396897845276 218.26256670833643625 0.126791455396897845276 204.55021951808677727
0.159620985197506115583 269.97329101642793603 0.159620985197506115583 248.80812558134013557
0.200950914520774404082 332.65467879222723013 0.200950914520774404082 300.32492181103236817
0.252982212813464002465 407.99233391982181729 0.252982212813464002465 359.12348968784141334
0.318485736442795541734 497.60779533120791029 0.318485736442795541734 424.54452575417667504
0.400949786901819038576 602.86463557406079872 0.400949786901819038576 494.91936169475485485
0.504765875584169521062 724.59311785636850800 0.504765875584169521062 567.21927802246250394
0.635462587779443310865 862.73618171189639270 0.635462587779443310865 636.78308392870371790
0.799999999999997157829 1015.95242707370175594 0.799999999999997157829 697.30989973877046850
1.007140329435330272645 1181.26588360426444524 1.007140329435330272645 741.37197292544408356
1.267914553968893187630 1353.91553190984564026 1.267914553968893187630 761.66027995726108202
1.596209851975103788391 1527.58991778990321109 1.596209851975103788391 752.91602045736362925
2.009509145207687197399 1695.17246572039152852 2.009509145207687197399 714.02506613416892378
2.529822128134711078928 1849.93413545041335055 2.529822128134711078928 649.30772446053640579
3.184857364427983839050 1986.84826436031971753 3.184857364427983839050 568.06135301167489615
4.009497869018190385759 2103.53444623281939130 4.009497869018190385759 482.11402134869143765
5.009497869018190385759 2197.53135561135059106 5.009497869018190385759 404.51253903851920768
6.009497869018190385759 2262.21173446516922922 6.009497869018190385759 350.07921988846078420
7.009497869018204596614 2309.80548826945778274 7.009497869018204596614 312.21048774749243648
8.009497869018190385759 2346.72010028668728410 8.009497869018190385759 285.55795166605486202
9.009497869018204596614 2376.54778171006500997 9.009497869018204596614 266.87927778878895424
10.009497869018190385759 2401.42417968547579221 10.009497869018190385759 253.55350314044196125
11.009497869018190385759 2422.68817313151294002 11.009497869018190385759 242.74440161033140839
12.009497869018190385759 2441.21699906308276695 12.009497869018190385759 234.50248565855378047
13.009497869018190385759 2457.61020739081141073 13.009497869018190385759 228.08454210713173893
14.009497869018204596614 2472.29206503283785423 14.009497869018204596614 222.98723665820202200
15.009497869018190385759 2485.57232847234763540 15.009497869018190385759 218.86211859841392879
16.009497869018190385759 2497.68344251267672007 16.009497869018190385759 215.46524302303700438
17.009497869018190385759 2508.80414948000270670 17.009497869018190385759 212.68740854987768785
18.009497869018190385759 2519.07480996756930836 18.009497869018190385759 210.25534627097283646
19.009497869018204596614 2528.60730517929277994 19.009497869018204596614 208.24379367337886038
20.009497869018190385759 2537.49272053311187847 20.009497869018190385759 206.39878720723572769
21.009497869018204596614 2545.80630815367658215 21.009497869018204596614 204.77350304398819958
22.009497869018190385759 2553.61047521250520731 22.009497869018190385759 203.32649145880986907
23.009497869018190385759 2560.95804477568299262 23.009497869018190385759 202.04830430756189230
24.009497869018190385759 2567.89407400545314886 24.009497869018190385759 200.86399952581550110
25.009497869018190385759 2574.45702312682760748 25.009497869018190385759 199.78156452789656328
26.009497869018204596614 2580.68052395540780708 26.009497869018204596614 198.80706638816513987
27.009497869018190385759 2586.59353317387285642 27.009497869018190385759 197.87865966471630941
28.009497869018190385759 2592.22178039964819618 28.009497869018190385759 197.01286467393421731
29.009497869018190385759 2597.58767784406427381 29.009497869018190385759 196.20725263371298297
30.009497869018190385759 2602.71134399875609233 30.009497869018190385759 195.44036042736559011
31.009497869018190385759 2607.61053770704074850 31.009497869018190385759 194.71446060671738110
32.009497869018190385759 2612.30124860055275349 32.009497869018190385759 194.02360752631091145
33.009497869018190385759 2616.79783235280365261 33.009497869018190385759 193.36772648608413760
34.009497869018190385759 2621.11318265799491201 34.009497869018190385759 192.73383841667350680
35.009497869018190385759 2625.25908647614778602 35.009497869018190385759 192.12222205856852497
36.009497869018190385759 2629.24612879228698148 36.009497869018190385759 191.53316023993221506
37.009497869018190385759 2633.08401525387262154 37.009497869018190385759 190.96319995773160372
38.009497869018190385759 2636.78162095768220752 38.009497869018190385759 190.41022222324963309
39.009497869018190385759 2640.34702133641167165 39.009497869018190385759 189.86831954202310158
40.009497869018190385759 2643.78767669683657004 40.009497869018190385759 189.33356094034292028
41.009497869018190385759 2647.11045682484018471 41.009497869018190385759 188.82610640528835688
42.009497869018190385759 2650.32166778119926676 42.009497869018190385759 188.31831998298844155
43.009497869018190385759 2653.42716110596029466 43.009497869018190385759 187.83276647143253513
44.009497869018218807469 2656.43236504521337338 44.009497869018218807469 187.34370992964159086
46.009497869018190385759 2662.16163730339712856 46.009497869018190385759 186.39458812896410222
48.009497869018190385759 2667.54566968528479265 48.009497869018190385759 185.48131462669761049
50.009497869018190385759 2672.61594941014618598 50.009497869018190385759 184.57719494183538700
52.009497869018190385759 2677.40001369765968775 52.009497869018190385759 183.69868334833009271
54.009497869018190385759 2681.92216945397876771 54.009497869018190385759 182.85002732780020551
56.009497869018190385759 2686.20384248932577975 56.009497869018190385759 182.01839787776674484
58.009497869018218807469 2690.26419063099137929 58.009497869018218807469 181.16338977870572080
60.009497869018190385759 2694.12019706107003003 60.009497869018190385759 180.36407314988562689
62.009497869018190385759 2697.78721281504022045 62.009497869018190385759 179.57904444220116602
64.009497869018190385759 2701.27894906931169317 64.009497869018190385759 178.80749627882815389
66.009497869018190385759 2704.60783613276817050 66.009497869018190385759 178.03629464762070711
68.009497869018190385759 2707.78516198935903958 68.009497869018190385759 177.27063240268498134
70.009497869018190385759 2710.82104160727203634 70.009497869018190385759 176.54202160958374179
72.009497869018218807469 2713.72487952948222301 72.009497869018218807469 175.81458858349017760
74.009497869018190385759 2716.50513705234607187 74.009497869018190385759 175.10864313395353520
76.009497869018190385759 2719.16955584822198944 76.009497869018190385759 174.41744022416375515
78.009497869018190385759 2721.72535270511934868 78.009497869018190385759 173.73577920824516241
80.009497869018190385759 2724.17903520533491246 80.009497869018190385759 173.07325540838670008
82.009497869018218807469 2726.53662121461820789 82.009497869018218807469 172.42773830406383695
84.009497869018190385759 2728.80375896330633623 84.009497869018190385759 171.80419218513787882
86.009497869018190385759 2730.98555183202279295 86.009497869018190385759 171.18304460254714172
88.009497869018190385759 2733.08672884893303490 88.009497869018190385759 170.58697271317168997
91.009497869018218807469 2736.09710634041721278 91.009497869018218807469 169.71377738323073459
94.009497869018190385759 2738.94973184908121766 94.009497869018190385759 168.87501423904024023
97.009497869018190385759 2741.65686458413802029 97.009497869018190385759 168.06432947354718976
99.504748934509109403734 2743.80569523854819636 99.504748934509109403734 167.54432977818692052
nan nan nan nan

