Time Pressure difference Time.1 Pressure.1 difference.1
(hr) (psi) (hr) (psi)
0.000200000000006639311 0.57676345598249679 0.000200000000006639311 0.45977520263242611
0.000399999999999067768 1.15320025538049697 0.000399999999999067768 1.20347462031776931
0.000600000000005707079 1.72936021426833797 0.000600000000005707079 1.76080230409980532
0.000799999999998135536 2.30526719425410409 0.000799999999998135536 2.32818685551704085
0.001007140329434719206 2.90148011885363344 0.001007140329434719206 2.92380620609474517
0.001267914553963578328 3.65171567169983335 0.001267914553963578328 3.67893468356535669
0.001596209851982166583 4.59566991171559902 0.001596209851982166583 4.62857897715356348
0.002009509145210586212 5.78321983861631228 0.002009509145210586212 5.82257214258896294
0.002529822128138903281 7.27700769300385453 0.002529822128138903281 7.32336712524839761
0.003184857364445292660 9.15566670859827703 0.003184857364445292660 9.20915305234927040
0.004009497869020606231 11.51783957781919554 0.004009497869020606231 11.57769745119910887
0.005047658755842121536 14.48717213014612959 0.005047658755842121536 14.55105916287646650
0.006354625877804664924 18.21849984208978412 0.006354625877804664924 18.28133136462136221
0.008000000000009777068 22.90548260903345223 0.008000000000009777068 22.95758071984256787
0.010071403294347192059 28.78998110057798598 0.010071403294347192059 28.81413925776109153
0.012679145539692626699 36.17350108079225635 0.012679145539692626699 36.14036739322926195
0.015962098519750611558 45.43105174757387488 0.015962098519750611558 45.29191976584353796
0.020095091452091651263 57.02775630988031708 0.020095091452091651263 56.70338053396898204
0.025298221281346400247 71.53849525866003489 0.025298221281346400247 70.90184790717454177
0.031848573644282396344 89.67072075757788241 0.031848573644282396344 88.52057781939639369
0.040094978690191851456 112.29030341083053202 0.040094978690191851456 110.31106139382232811
0.050476587558421215363 140.44978783642272901 0.050476587558421215363 137.15080626160187194
0.063546258777947173257 175.41764200976678012 0.063546258777947173257 170.04249847718830324
0.079999999999998294697 218.70585976814632545 0.079999999999998294697 210.09802401223245738
0.100714032943542974863 272.09146459108836780 0.100714032943542974863 258.49795606340575205
0.126791455396897845276 337.62490787695793415 0.126791455396897845276 316.41362081704045295
0.159620985197506115583 417.61493454103703016 0.159620985197506115583 384.87506925863550578
0.200950914520774404082 514.57520625672646020 0.200950914520774404082 464.56511342644068918
0.252982212813464002465 631.11314153222440382 0.252982212813464002465 555.51914811087965518
0.318485736442795541734 769.73705840296236147 0.318485736442795541734 656.71731327599206907
0.400949786901819038576 932.55623315362538506 0.400949786901819038576 765.57838762157382462
0.504765875584169521062 1120.85497918407008910 0.504765875584169521062 877.41732069099657565
0.635462587779443310865 1334.54503108558969871 0.635462587779443310865 985.02383295221352455
0.799999999999997157829 1571.55141062963230070 0.799999999999997157829 1078.65125115841033221
1.007140329435330272645 1827.27066370034663123 1.007140329435330272645 1146.80977061904604852
1.267914553968893187630 2094.33808842304279096 1.267914553968893187630 1178.19324555888829309
1.596209851975103788391 2362.99065408125625254 1.596209851975103788391 1164.66696914498447768
2.009509145207687197399 2622.21990791123107556 2.009509145207687197399 1104.50752417629246338
2.529822128134711078928 2861.61686577485806993 2.529822128134711078928 1004.39788627489235751
3.184857364427983839050 3073.40590893236958436 3.184857364427983839050 878.71990543993467782
4.009497869018190385759 3253.90484651639189906 4.009497869018190385759 745.77012677375694238
5.009497869018190385759 3399.30631571130743396 5.009497869018190385759 625.73033382520929990
6.009497869018190385759 3499.35877675080882909 6.009497869018190385759 541.52879326496281465
7.009497869018204596614 3572.98036466681742240 7.009497869018204596614 482.95059823440237778
8.009497869018190385759 3630.08265513096966970 8.009497869018190385759 441.72245648342862978
9.009497869018204596614 3676.22234983275666309 9.009497869018204596614 412.82888282953291537
10.009497869018190385759 3714.70302795096995396 10.009497869018190385759 392.21557517037115304
11.009497869018190385759 3747.59576781280838986 11.009497869018190385759 375.49524624098143022
12.009497869018190385759 3776.25754542570666672 12.009497869018190385759 362.74603250307535518
13.009497869018190385759 3801.61578955766162835 13.009497869018190385759 352.81827607196942154
14.009497869018204596614 3824.32678809767139683 14.009497869018204596614 344.93338170565630207
15.009497869018190385759 3844.86969560566285509 15.009497869018190385759 338.55233970692160028
16.009497869018190385759 3863.60407513679683689 16.009497869018190385759 333.29779780126040123
17.009497869018190385759 3880.80641872687965588 17.009497869018190385759 329.00083510059204173
18.009497869018190385759 3896.69384666858422861 18.009497869018190385759 325.23873876291111173
19.009497869018204596614 3911.43942519921847634 19.009497869018204596614 322.12711833850795529
20.009497869018190385759 3925.18405207465730200 20.009497869018190385759 319.27312396119282312
21.009497869018204596614 3938.04413292521803669 21.009497869018204596614 316.75901252116921114
22.009497869018190385759 3950.11620384434354492 22.009497869018190385759 314.52066647534650201
23.009497869018190385759 3961.48197551238399683 23.009497869018190385759 312.54347072575978927
24.009497869018190385759 3972.21114572718533964 24.009497869018190385759 310.71149926649582085
25.009497869018190385759 3982.36320764931178928 25.009497869018190385759 309.03710762908997367
26.009497869018204596614 3991.99018549352149421 26.009497869018204596614 307.52968081919294718
27.009497869018190385759 4001.13687162833412003 27.009497869018190385759 306.09355166885802646
28.009497869018190385759 4009.84306655570571820 28.009497869018190385759 304.75427504249199728
29.009497869018190385759 4018.14343916503730725 29.009497869018190385759 303.50809391777477231
30.009497869018190385759 4026.06911024807550348 30.009497869018190385759 302.32180753608116675
31.009497869018190385759 4033.64755051557858678 31.009497869018190385759 301.19893125101589249
32.009497869018190385759 4040.90349392897906000 32.009497869018190385759 300.13026789226216806
33.009497869018190385759 4047.85914692074356935 33.009497869018190385759 299.11570190816138393
34.009497869018190385759 4054.53445442408610688 34.009497869018190385759 298.13515630079183438
35.009497869018190385759 4060.94764939279093596 35.009497869018190385759 297.18906224684820927
36.009497869018190385759 4067.11510547556918027 36.009497869018190385759 296.27785724614511764
37.009497869018190385759 4073.05183609583400539 37.009497869018190385759 295.39619993461610648
38.009497869018190385759 4078.77156991891433790 38.009497869018190385759 294.54081250158924377
39.009497869018190385759 4084.28679862976150616 39.009497869018190385759 293.70255679156696260
40.009497869018190385759 4089.60906239041923982 40.009497869018190385759 292.87535207959291483
41.009497869018190385759 4094.74898790092447598 41.009497869018190385759 292.09038334568043638
42.009497869018190385759 4099.71632984904226760 42.009497869018190385759 291.30490122368530592
43.009497869018190385759 4104.52013983578308398 43.009497869018190385759 290.55381063549720011
44.009497869018218807469 4109.16881467931489169 44.009497869018218807469 289.79730129741437850
46.009497869018190385759 4118.03128270369234087 46.009497869018190385759 288.32912851199137094
48.009497869018190385759 4126.35970779442504863 48.009497869018190385759 286.91640856317286534
50.009497869018190385759 4134.20279674381981749 50.009497869018190385759 285.51784842565160716
52.009497869018190385759 4141.60314618856682500 52.009497869018190385759 284.15890080444813748
54.009497869018190385759 4148.59835587412362656 54.009497869018190385759 282.84613602269092780
56.009497869018190385759 4155.22156885067579424 56.009497869018190385759 281.55970921717039346
58.009497869018218807469 4161.50241988231391588 58.009497869018218807469 280.23711856393543940
60.009497869018190385759 4167.46717982884274534 60.009497869018190385759 279.00067565372938816
62.009497869018190385759 4173.13959482326481520 62.009497869018190385759 277.78633437152996066
64.009497869018190385759 4178.54087434159191616 64.009497869018190385759 276.59284580631225481
66.009497869018190385759 4183.69024651787640323 66.009497869018190385759 275.39989328303829552
68.009497869018190385759 4188.60517245229038963 68.009497869018190385759 274.21550949790332652
70.009497869018190385759 4193.30129873624900938 70.009497869018190385759 273.08843967732485680
72.009497869018218807469 4197.79317302216804819 72.009497869018218807469 271.96319171508633872
74.009497869018190385759 4202.09388387784747465 74.009497869018190385759 270.87118234783440585
76.009497869018190385759 4206.21540670271861018 76.009497869018190385759 269.80197784675334560
78.009497869018190385759 4210.16890496573159908 78.009497869018190385759 268.74753346275423382
80.009497869018190385759 4213.96444508325203060 80.009497869018190385759 267.72269195984819135
82.009497869018218807469 4217.61133594136208558 82.009497869018218807469 266.72415768909877443
84.009497869018190385759 4221.11831464636452438 84.009497869018190385759 265.75960978638516963
86.009497869018190385759 4224.49327549016015837 86.009497869018190385759 264.79877211956511474
88.009497869018190385759 4227.74353368819265597 88.009497869018190385759 263.87672341568747925
91.009497869018218807469 4232.40021137033272680 91.009497869018218807469 262.52599938968501192
94.009497869018190385759 4236.81286645404725277 94.009497869018190385759 261.22853765101535828
97.009497869018190385759 4241.00046240358824434 97.009497869018190385759 259.97450965439333004
99.504748934509109403734 4244.32443482212966046 99.504748934509109403734 259.17013512563289623
nan nan nan nan

