Time Pressure difference Time.1 Pressure.1 difference.1
(hr) (psi) (hr) (psi)
0.000200000000006639311 0.76485658881372953 0.000200000000006639311 0.60971632210562710
0.000399999999999067768 1.52927999234441070 0.000399999999999067768 1.59594974902168851
0.000600000000005707079 2.29333627260115813 0.000600000000005707079 2.33503220413812551
0.000799999999998135536 3.05705707289974304 0.000799999999998135536 3.08745125572894796
0.001007140329434719206 3.84770595847978303 0.001007140329434719206 3.87731299192073653
0.001267914553963578328 4.84260707401464163 0.001267914553963578328 4.87870270446834464
0.001596209851982166583 6.09440209071664629 0.001596209851982166583 6.13804340548935912
0.002009509145210586212 7.66923381196016063 0.002009509145210586212 7.72141962343327126
0.002529822128138903281 9.65017326099645345 0.002529822128138903281 9.71165135368438293
0.003184857364445292660 12.14149741010363037 0.003184857364445292660 12.21242663074888846
0.004009497869020606231 15.27401814143700243 0.004009497869020606231 15.35339676428857203
0.005047658755842121536 19.21170445541745053 0.005047658755842121536 19.29642622032247345
0.006354625877804664924 24.15988651497909245 0.006354625877804664924 24.24320854846613571
0.008000000000009777068 30.37538025642387396 0.008000000000009777068 30.44446851592397607
0.010071403294347192059 38.17892154607672239 0.010071403294347192059 38.21095812104248068
0.012679145539692626699 47.97034270309969628 0.012679145539692626699 47.92640351281052347
0.015962098519750611558 60.24695029728772511 0.015962098519750611558 60.06244482656595807
0.020095091452091651263 75.62555273994229310 0.020095091452091651263 75.19539207895741129
0.025298221281346400247 94.86850958543804779 0.025298221281346400247 94.02423986535843881
0.031848573644282396344 118.91398611286302867 0.031848573644282396344 117.38876048488496906
0.040094978690191851456 148.91022919848953165 0.040094978690191851456 146.28552008791157846
0.050476587558421215363 186.25303754931093181 0.050476587558421215363 181.87819762541428759
0.063546258777947173257 232.62454979361567098 0.063546258777947173257 225.49647344954698269
0.079999999999998294697 290.02984866800352393 0.079999999999998294697 278.61483992386962427
0.100714032943542974863 360.82547757461793481 0.100714032943542974863 342.79887679981231940
0.126791455396897845276 447.73057768964554270 0.126791455396897845276 419.60190119893246674
0.159620985197506115583 553.80681795557427449 0.159620985197506115583 510.38988260993653512
0.200950914520774404082 682.38761118316244847 0.200950914520774404082 616.06831059004196050
0.252982212813464002465 836.93070283999168169 0.252982212813464002465 736.68412281947826159
0.318485736442795541734 1020.76241944058074296 0.318485736442795541734 870.88486421448294550
0.400949786901819038576 1236.67991092089710037 0.400949786901819038576 1015.24752990508852690
0.504765875584169521062 1486.38632881697026278 0.504765875584169521062 1163.55918862197108865
0.635462587779443310865 1769.76462275275184766 0.635462587779443310865 1306.25815654124698995
0.799999999999997157829 2084.06312607306199425 0.799999999999997157829 1430.41919165162948957
1.007140329435330272645 2423.17711391142620414 1.007140329435330272645 1520.80545338947104028
1.267914553968893187630 2777.34012014542031466 1.267914553968893187630 1562.42365464447084378
1.596209851975103788391 3133.60521082348441269 1.596209851975103788391 1544.48621160785091888
2.009509145207687197399 3477.37387499339229180 2.009509145207687197399 1464.70766914576165618
2.529822128134711078928 3794.84256803332527852 2.529822128134711078928 1331.95044370364530550
3.184857364427983839050 4075.69989943556583967 3.184857364427983839050 1165.28657012885992117
4.009497869018190385759 4315.06284841062733904 4.009497869018190385759 988.97943218626664930
5.009497869018190385759 4507.88240135453361290 5.009497869018190385759 829.79246289374805201
6.009497869018190385759 4640.56380351225561753 6.009497869018190385759 718.13125686940952619
7.009497869018204596614 4738.19474044560683978 7.009497869018204596614 640.44963892844987186
8.009497869018190385759 4813.91913429345004261 8.009497869018190385759 585.77624460067943346
9.009497869018204596614 4875.10582899899509357 9.009497869018204596614 547.45994707119882605
10.009497869018190385759 4926.13576145301794895 10.009497869018190385759 520.12426202246899720
11.009497869018190385759 4969.75542658004451368 11.009497869018190385759 497.95112741047904592
12.009497869018190385759 5007.76433513163647149 12.009497869018190385759 481.04416142904216258
13.009497869018190385759 5041.39236739320494962 13.009497869018190385759 467.87878168851352711
14.009497869018204596614 5071.50983876155805774 14.009497869018204596614 457.42247876983856258
15.009497869018190385759 5098.75216487965917622 15.009497869018190385759 448.96046203558574916
16.009497869018190385759 5123.59616890435245296 16.009497869018190385759 441.99231771913173361
17.009497869018190385759 5146.40851199134522176 17.009497869018190385759 436.29403673512859996
18.009497869018190385759 5167.47712133972345327 18.009497869018190385759 431.30505183710727124
19.009497869018204596614 5187.03150325841488666 19.009497869018204596614 427.17867496838204033
20.009497869018190385759 5205.25850484359307302 20.009497869018190385759 423.39394072198581398
21.009497869018204596614 5222.31249373488481069 21.009497869018204596614 420.05993146746686762
22.009497869018190385759 5238.32148821493774449 22.009497869018190385759 417.09161975590683369
23.009497869018190385759 5253.39384631440316298 23.009497869018190385759 414.46962423805661047
24.009497869018190385759 5267.62199556029372616 24.009497869018190385759 412.04021331300100428
25.009497869018190385759 5281.08483092311325890 25.009497869018190385759 409.81977187753778935
26.009497869018204596614 5293.85134266745444620 26.009497869018204596614 407.82074555965124318
27.009497869018190385759 5305.98093077408157114 27.009497869018190385759 405.91626837471943645
28.009497869018190385759 5317.52637541802869237 28.009497869018190385759 404.14022909675344408
29.009497869018190385759 5328.53365164887327410 29.009497869018190385759 402.48764546960319421
30.009497869018190385759 5339.04402931887671002 30.009497869018190385759 400.91448935881470561
31.009497869018190385759 5349.09393784100575431 31.009497869018190385759 399.42542253922607642
32.009497869018190385759 5358.71617737479391508 32.009497869018190385759 398.00824847473148793
33.009497869018190385759 5367.94019627729176136 33.009497869018190385759 396.66281393015924550
34.009497869018190385759 5376.79244388994993642 34.009497869018190385759 395.36249443063161380
35.009497869018190385759 5385.29709926691884903 35.009497869018190385759 394.10786176746529463
36.009497869018190385759 5393.47587580382059969 36.009497869018190385759 392.89949611718230926
37.009497869018190385759 5401.34868307658234698 37.009497869018190385759 391.73031419900752326
38.009497869018190385759 5408.93372691988861334 38.009497869018190385759 390.59596924813934038
39.009497869018190385759 5416.24757278607648914 39.009497869018190385759 389.48434298910541429
40.009497869018190385759 5423.30552429552062677 40.009497869018190385759 388.38737166110519183
41.009497869018190385759 5430.12167370988481707 41.009497869018190385759 387.34641023763390422
42.009497869018190385759 5436.70895689937879069 42.009497869018190385759 386.30476800081783040
43.009497869018190385759 5443.07937735798623180 43.009497869018190385759 385.30873300724664432
44.009497869018218807469 5449.24407026015978772 44.009497869018218807469 384.30551211013533930
46.009497869018190385759 5460.99675152192321548 46.009497869018190385759 382.35854127347766962
48.009497869018190385759 5472.04122866244779289 48.009497869018190385759 380.48510745967655566
50.009497869018190385759 5482.44209265161680378 50.009497869018190385759 378.63045123113107593
52.009497869018190385759 5492.25583166997512308 52.009497869018190385759 376.82832588641821303
54.009497869018190385759 5501.53230742903178907 54.009497869018190385759 375.08744445144725432
56.009497869018190385759 5510.31547153502378933 56.009497869018190385759 373.38149028943672647
58.009497869018218807469 5518.64462319169888360 58.009497869018218807469 371.62757858622899221
60.009497869018190385759 5526.55460066768591787 60.009497869018190385759 369.98790898380559611
62.009497869018190385759 5534.07689414513788506 62.009497869018190385759 368.37754875531891230
64.009497869018190385759 5541.23962989887786534 64.009497869018190385759 366.79484169697110474
66.009497869018190385759 5548.06830670985254983 66.009497869018190385759 365.21284549366839656
68.009497869018190385759 5554.58608006299346016 68.009497869018190385759 363.64221245104351965
70.009497869018190385759 5560.81369918991731538 70.009497869018190385759 362.14758450715947902
72.009497869018218807469 5566.77045599909342855 72.009497869018218807469 360.65537256300774516
74.009497869018190385759 5572.47370748014782293 74.009497869018190385759 359.20723892880204176
76.009497869018190385759 5577.93933442972411285 76.009497869018190385759 357.78934724555023195
78.009497869018190385759 5583.18214092858215736 78.009497869018190385759 356.39102922405646723
80.009497869018190385759 5588.21547623594415199 80.009497869018190385759 355.03196812568614860
82.009497869018218807469 5593.05168503623553988 82.009497869018218807469 353.70779352998806644
84.009497869018190385759 5597.70235376624714263 84.009497869018190385759 352.42868887978062276
86.009497869018190385759 5602.17795119113543478 86.009497869018190385759 351.15450444138576813
88.009497869018190385759 5606.48817815216443705 88.009497869018190385759 349.93175875759993687
91.009497869018218807469 5612.66348376527548680 91.009497869018218807469 348.14053887318988245
94.009497869018190385759 5618.51518653862876818 94.009497869018190385759 346.41995108410264947
97.009497869018190385759 5624.06843426969317079 97.009497869018190385759 344.75696157631671213
99.504748934509109403734 5628.47641500943245774 99.504748934509109403734 343.69026577266470213
nan nan nan nan

