Time Pressure difference Time.1 Pressure.1 difference.1
(hr) (psi) (hr) (psi)
0.000200000000006639311 0.55262761150415274 0.000200000000006639311 0.44053497048763479
0.000399999999999067768 1.10494223603556962 0.000399999999999067768 1.15311276751947900
0.000600000000005707079 1.65699160501324161 0.000600000000005707079 1.68711793639577312
0.000799999999998135536 2.20879858150754016 0.000799999999998135536 2.23075912274648669
0.001007140329434719206 2.78006175890160590 0.001007140329434719206 2.80145356543565782
0.001267914553963578328 3.49890217317271146 0.001267914553963578328 3.52498214990966385
0.001596209851982166583 4.40335472060484534 0.001596209851982166583 4.43488663900428115
0.002009509145210586212 5.54120919601909367 0.002009509145210586212 5.57891472248062215
0.002529822128138903281 6.97248644755347691 0.002529822128138903281 7.01690587469687710
0.003184857364445292660 8.77252914070599665 0.003184857364445292660 8.82377723919179680
0.004009497869020606231 11.03585206301868205 0.004009497869020606231 11.09320506146639040
0.005047658755842121536 13.88092683177060671 0.005047658755842121536 13.94214038116879451
0.006354625877804664924 17.45610951680752621 0.006354625877804664924 17.51631172598641584
0.008000000000009777068 21.94695591976654114 0.008000000000009777068 21.99687387875247424
0.010071403294347192059 27.58520555668655305 0.010071403294347192059 27.60835276645506653
0.012679145539692626699 34.65974706731033450 0.012679145539692626699 34.62799992655732950
0.015962098519750611558 43.52989662393802917 0.015962098519750611558 43.39658690406941588
0.020095091452091651263 54.64131340513785062 0.020095091452091651263 54.33051179589524082
0.025298221281346400247 68.54482085389648205 0.025298221281346400247 67.93481531077040358
0.031848573644282396344 85.91826635358111730 0.031848573644282396344 84.81625349506377631
0.040094978690191851456 107.59128638498047792 0.040094978690191851456 105.69486979148345540
0.050476587558421215363 134.57237968742379053 0.050476587558421215363 131.41145073261708376
0.063546258777947173257 168.07693260387466694 0.063546258777947173257 162.92672292763785435
0.079999999999998294697 209.55366650223544411 0.079999999999998294697 201.30604320941176866
0.100714032943542974863 260.70524168612223548 0.100714032943542974863 247.68058127864566131
0.126791455396897845276 323.49630422842727739 0.126791455396897845276 303.17264678573576475
0.159620985197506115583 400.13898489934859981 0.159620985197506115583 368.76918612948628606
0.200950914520774404082 493.04175606705109658 0.200950914520774404082 445.12443768420871493
0.252982212813464002465 604.70292348830741957 0.252982212813464002465 532.27231507305066316
0.318485736442795541734 737.52583950875464325 0.318485736442795541734 629.23563638565474321
0.400949786901819038576 893.53151344012587742 0.400949786901819038576 733.54119679758298389
0.504765875584169521062 1073.95051396568919699 0.504765875584169521062 840.70000135472116654
0.635462587779443310865 1278.69826932298929023 0.635462587779443310865 943.80349939432869633
0.799999999999997157829 1505.78663298423634842 0.799999999999997157829 1033.51288711282040822
1.007140329435330272645 1750.80479177060624352 1.007140329435330272645 1098.81917415735438226
1.267914553968893187630 2006.69623479494975982 1.267914553968893187630 1128.88934350808335694
1.596209851975103788391 2264.10648529574928034 1.596209851975103788391 1115.92910174930693756
2.009509145207687197399 2512.48776169272332481 2.009509145207687197399 1058.28715159171451887
2.529822128134711078928 2741.86666504257664201 2.529822128134711078928 962.36680589686659459
3.184857364427983839050 2944.79296324833103426 3.184857364427983839050 841.94807678516099259
4.009497869018190385759 3117.73855423792883812 4.009497869018190385759 714.56185307038197152
5.009497869018190385759 3257.05540206682280768 5.009497869018190385759 599.54537036066233213
6.009497869018190385759 3352.92096358230401165 6.009497869018190385759 518.86741519182578486
7.009497869018204596614 3423.46170582794638904 7.009497869018204596614 462.74054434003340930
8.009497869018190385759 3478.17443435348332059 8.009497869018190385759 423.23767836218843286
9.009497869018204596614 3522.38331932027494986 9.009497869018204596614 395.55321529409786763
10.009497869018190385759 3559.25369489097283804 10.009497869018190385759 375.80251358315501875
11.009497869018190385759 3590.76997089134920316 11.009497869018190385759 359.78188095816977921
12.009497869018190385759 3618.23233789706955577 12.009497869018190385759 347.56618410107068939
13.009497869018190385759 3642.52941452566710723 13.009497869018190385759 338.05387490878456447
14.009497869018204596614 3664.29002495938493666 14.009497869018204596614 330.49894004697802075
15.009497869018190385759 3683.97327255722939299 15.009497869018190385759 324.38492577979212683
16.009497869018190385759 3701.92367372414582860 16.009497869018190385759 319.35027090914417158
17.009497869018190385759 3718.40615012214720991 17.009497869018190385759 315.23312338642585928
18.009497869018190385759 3733.62873620193340685 18.009497869018190385759 311.62845965162046014
19.009497869018204596614 3747.75725589073772426 19.009497869018204596614 308.64705133732940112
20.009497869018190385759 3760.92671079014780844 20.009497869018190385759 305.91248818215296978
21.009497869018204596614 3773.24863529919912253 21.009497869018204596614 303.50358486876825737
22.009497869018190385759 3784.81552576139165467 22.009497869018190385759 301.35890698359315820
23.009497869018190385759 3795.70567350681585594 23.009497869018190385759 299.46445102727921039
24.009497869018190385759 3805.98585968665383916 24.009497869018190385759 297.70914215433367644
25.009497869018190385759 3815.71308784869097508 25.009497869018190385759 296.10481885384666612
26.009497869018204596614 3824.93720514819324308 26.009497869018204596614 294.66047339674474870
27.009497869018190385759 3833.70112952556110031 27.009497869018190385759 293.28444200306165612
28.009497869018190385759 3842.04299594947906371 28.009497869018190385759 292.00121014172390232
29.009497869018190385759 3849.99602251888109095 29.009497869018190385759 290.80717801068175277
30.009497869018190385759 3857.59002771244149699 30.009497869018190385759 289.67053420484546677
31.009497869018190385759 3864.85133267293576864 31.009497869018190385759 288.59464697067039651
32.009497869018190385759 3871.80363631867567165 32.009497869018190385759 287.57070401221079692
33.009497869018190385759 3878.46821580861978873 33.009497869018190385759 286.59859461330324848
34.009497869018190385759 3884.86418143952869286 34.009497869018190385759 285.65908193899821299
35.009497869018190385759 3891.00900317000468931 35.009497869018190385759 284.75257912252124015
36.009497869018190385759 3896.91836945999648378 36.009497869018190385759 283.87950535561378729
37.009497869018190385759 3902.60666546556149115 37.009497869018190385759 283.03474279449505957
38.009497869018190385759 3908.08704534799335306 38.009497869018190385759 282.21515079517354252
39.009497869018190385759 3913.37147805218137364 39.009497869018190385759 281.41197360692706297
40.009497869018190385759 3918.47102081852563060 40.009497869018190385759 280.61938496515108454
41.009497869018190385759 3923.39585565110246534 41.009497869018190385759 279.86726485069522141
42.009497869018190385759 3928.15532903284838540 42.009497869018190385759 279.11465283192927700
43.009497869018190385759 3932.75811378204844004 43.009497869018190385759 278.39499316301606768
44.009497869018218807469 3937.21225533487040593 44.009497869018218807469 277.67014150286166796
46.009497869018190385759 3945.70385528896349570 46.009497869018190385759 276.26340740542894991
48.009497869018190385759 3953.68376042640375090 48.009497869018190385759 274.90980560742679017
50.009497869018190385759 3961.19863930432347843 50.009497869018190385759 273.56977107450603626
52.009497869018190385759 3968.28930601617412322 52.009497869018190385759 272.26769139127497965
54.009497869018190385759 3974.99178686929008109 54.009497869018190385759 271.00986193227527110
56.009497869018190385759 3981.33783797525074988 56.009497869018190385759 269.77726828311853069
58.009497869018218807469 3987.35585397093336724 58.009497869018218807469 268.51002413629601051
60.009497869018190385759 3993.07100635837196023 60.009497869018190385759 267.32532270429476284
62.009497869018190385759 3998.50604756514849214 62.009497869018190385759 266.16179801254816084
64.009497869018190385759 4003.68129951344371875 64.009497869018190385759 265.01825341326315311
66.009497869018190385759 4008.61518569678173662 66.009497869018190385759 263.87522242415212759
68.009497869018190385759 4013.32443651994253742 68.009497869018190385759 262.74040159683664797
70.009497869018190385759 4017.82404381077822109 70.009497869018190385759 261.66049631420446531
72.009497869018218807469 4022.12794644548284850 72.009497869018218807469 260.58233665053006689
74.009497869018190385759 4026.24868527401258689 74.009497869018190385759 259.53602464496685798
76.009497869018190385759 4030.19773456075790818 76.009497869018190385759 258.51156318938558343
78.009497869018190385759 4033.98579061651616939 78.009497869018190385759 257.50124418364907797
80.009497869018190385759 4037.62249860790734601 80.009497869018190385759 256.51928926600169234
82.009497869018218807469 4041.11677787166536291 82.009497869018218807469 255.56254070066606232
84.009497869018190385759 4044.47699989204329540 84.009497869018190385759 254.63835627440082021
86.009497869018190385759 4047.71072860817594119 86.009497869018190385759 253.71772682163239665
88.009497869018190385759 4050.82497311538281792 88.009497869018190385759 252.83426312845085704
91.009497869018218807469 4055.28678261168988683 91.009497869018218807469 251.54006290728838735
94.009497869018190385759 4059.51478113345956444 94.009497869018190385759 250.29689610429178970
97.009497869018190385759 4063.52713858006200098 97.009497869018190385759 249.09534546972173530
99.504748934509109403734 4066.71201258570545178 99.504748934509109403734 248.32463163552705510
nan nan nan nan

