Time Pressure difference Time.1 Pressure.1 difference.1
(hr) (psi) (hr) (psi)
0.000200000000006639311 0.86389677822486544 0.000200000000006639311 0.68866761952735678
0.000399999999999067768 1.72730427862186953 0.000399999999999067768 1.80260700705605292
0.000600000000005707079 2.59029711747551916 0.000600000000005707079 2.63739219575122386
0.000799999999998135536 3.45291103554943790 0.000799999999998135536 3.48724091778742951
0.001007140329434719206 4.34593991828293191 0.001007140329434719206 4.37938072428044034
0.001267914553963578328 5.46966936107420931 0.001267914553963578328 5.51043896326239580
0.001596209851982166583 6.88355753010215299 0.001596209851982166583 6.93284989651572836
0.002009509145210586212 8.66231196606599063 0.002009509145210586212 8.72125524387783990
0.002529822128138903281 10.89976044060317761 0.002529822128138903281 10.96919924387855261
0.003184857364445292660 13.71368260248919313 0.003184857364445292660 13.79379634680886291
0.004009497869020606231 17.25182897803221493 0.004009497869020606231 17.34148622560558906
0.005047658755842121536 21.69940067978597753 0.005047658755842121536 21.79509294526085483
0.006354625877804664924 27.28831578079248743 0.006354625877804664924 27.38242706562333950
0.008000000000009777068 34.30864494686395716 0.008000000000009777068 34.38667934660401215
0.010071403294347192059 43.12265567445880521 0.010071403294347192059 43.15884061984994702
0.012679145539692626699 54.18195399980140081 0.012679145539692626699 54.13232518639534163
0.015962098519750611558 68.04824201151758700 0.015962098519750611558 67.83984519039766781
0.020095091452091651263 85.41819776285103671 0.020095091452091651263 84.93233621105311215
0.025298221281346400247 107.15289766015744988 0.025298221281346400247 106.19930465749952475
0.031848573644282396344 134.31198866719458351 0.031848573644282396344 132.58926374680152094
0.040094978690191851456 168.19240251146044329 0.040094978690191851456 165.22782355957806999
0.050476587558421215363 210.37067788485825304 0.050476587558421215363 205.42934617538634257
0.063546258777947173257 262.74677114882820206 0.063546258777947173257 254.69569035977124827
0.079999999999998294697 327.58540034536201802 0.079999999999998294697 314.69227839061659324
0.100714032943542974863 407.54825432258263618 0.100714032943542974863 387.18741470969007423
0.126791455396897845276 505.70657197154736195 0.126791455396897845276 473.93555325842424963
0.159620985197506115583 625.51847338181300984 0.159620985197506115583 576.47954096748003394
0.200950914520774404082 770.74901023734787486 0.200950914520774404082 695.84211794609734625
0.252982212813464002465 945.30366653744431460 0.252982212813464002465 832.07629976781117875
0.318485736442795541734 1152.93949007543278640 0.318485736442795541734 983.65450386793622783
0.400949786901819038576 1396.81582974525690588 0.400949786901819038576 1146.71048535525778789
0.504765875584169521062 1678.85637574756810864 0.504765875584169521062 1314.22680934668755981
0.635462587779443310865 1998.92892101997449572 0.635462587779443310865 1475.40366320980888304
0.799999999999997157829 2353.92548951451408357 0.799999999999997157829 1615.64213376974021230
1.007140329435330272645 2736.95086424380860990 1.007140329435330272645 1717.73238369779210188
1.267914553968893187630 3136.97393330897284613 1.267914553968893187630 1764.73966650811826185
1.596209851975103788391 3539.37128273642701970 1.596209851975103788391 1744.47952954183824659
2.009509145207687197399 3927.65406120037141591 2.009509145207687197399 1654.37057733765027479
2.529822128134711078928 4286.23132276234173332 2.529822128134711078928 1504.42280801347533270
3.184857364427983839050 4603.45646965627565805 3.184857364427983839050 1316.17786702258626974
4.009497869018190385759 4873.81418569121979090 4.009497869018190385759 1117.04096910701264278
5.009497869018190385759 5091.60166768879844312 5.009497869018190385759 937.24110607585475918
6.009497869018190385759 5241.46379547956621536 6.009497869018190385759 811.12104965228195397
7.009497869018204596614 5351.73682326718062541 7.009497869018204596614 723.38054973637758849
8.009497869018190385759 5437.26666093210133113 8.009497869018190385759 661.62757551197535122
9.009497869018204596614 5506.37633351573185791 9.009497869018204596614 618.34975523384582630
10.009497869018190385759 5564.01405918197269784 10.009497869018190385759 587.47441129414892202
11.009497869018190385759 5613.28197256810290128 11.009497869018190385759 562.43010908822327565
12.009497869018190385759 5656.21260050776800199 12.009497869018190385759 543.33388418209551673
13.009497869018190385759 5694.19507873138991272 13.009497869018190385759 528.46373818572044456
14.009497869018204596614 5728.21241853590618121 14.009497869018204596614 516.65346350717345558
15.009497869018190385759 5758.98231463012689346 15.009497869018190385759 507.09571228828951917
16.009497869018190385759 5787.04333332178248384 16.009497869018190385759 499.22527289712593301
17.009497869018190385759 5812.80961419697086967 17.009497869018190385759 492.78912963118983726
18.009497869018190385759 5836.60636773735950555 18.009497869018190385759 487.15412819033434744
19.009497869018204596614 5858.69281869666519924 19.009497869018204596614 482.49343266287331744
20.009497869018190385759 5879.28000873520068126 20.009497869018190385759 478.21861857390780415
21.009497869018204596614 5898.54229433820546546 21.009497869018204596614 474.45289321352629486
22.009497869018190385759 5916.62427069325894990 22.009497869018190385759 471.10021904965321937
23.009497869018190385759 5933.64832695794393658 23.009497869018190385759 468.13870506975274566
24.009497869018190385759 5949.71885896799176408 24.009497869018190385759 465.39471318704568148
25.009497869018190385759 5964.92497769117653661 25.009497869018190385759 462.88674995526031353
26.009497869018204596614 5979.34460684310943179 26.009497869018204596614 460.62887256900756938
27.009497869018190385759 5993.04483802339200338 27.009497869018190385759 458.47778734815966573
28.009497869018190385759 6006.08528583668521605 28.009497869018190385759 456.47177127576725297
29.009497869018190385759 6018.51787857620274735 29.009497869018190385759 454.60519695043319643
30.009497869018190385759 6030.38923006854656705 30.009497869018190385759 452.82833509733364963
31.009497869018190385759 6041.74048691943880840 31.009497869018190385759 451.14645113788537856
32.009497869018190385759 6052.60869653431564075 32.009497869018190385759 449.54576922390782556
33.009497869018190385759 6063.02712049600540922 33.009497869018190385759 448.02611627802531302
34.009497869018190385759 6073.02563303347960755 34.009497869018190385759 446.55742026006049628
35.009497869018190385759 6082.63154411214600259 35.009497869018190385759 445.14032700177261859
36.009497869018190385759 6091.86937876427236915 36.009497869018190385759 443.77549180591432787
37.009497869018190385759 6100.76162462839238287 37.009497869018190385759 442.45491418777993431
38.009497869018190385759 6109.32884498677231022 38.009497869018190385759 441.17368452618995889
39.009497869018190385759 6117.58975032856051257 39.009497869018190385759 439.91811536745530020
40.009497869018190385759 6125.56162591811698803 40.009497869018190385759 438.67909878588375250
41.009497869018190385759 6133.26038880398209585 41.009497869018190385759 437.50334475153857738
42.009497869018190385759 6140.70064990376067726 42.009497869018190385759 436.32682174629911742
43.009497869018190385759 6147.89596702675680717 43.009497869018190385759 435.20181160122092479
44.009497869018218807469 6154.85891722529413528 44.009497869018218807469 434.06868506019634424
46.009497869018190385759 6168.13343643063853960 46.009497869018190385759 431.86960374523374639
48.009497869018190385759 6180.60804717260180041 48.009497869018190385759 429.75358165739311289
50.009497869018190385759 6192.35570421368629468 50.009497869018190385759 427.65876863755613613
52.009497869018190385759 6203.44021030841668107 52.009497869018190385759 425.62328865081843787
54.009497869018190385759 6213.91788369024561689 54.009497869018190385759 423.65698296039414572
56.009497869018190385759 6223.83836719625105616 56.009497869018190385759 421.73012722571849054
58.009497869018218807469 6233.24604882805579109 58.009497869018218807469 419.74910399619767531
60.009497869018190385759 6242.18027801203243143 60.009497869018190385759 417.89711591424401149
62.009497869018190385759 6250.67662254913284414 62.009497869018190385759 416.07823243527860768
64.009497869018190385759 6258.76685074541364884 64.009497869018190385759 414.29058289603483445
66.009497869018190385759 6266.47976318261953566 66.009497869018190385759 412.50373625944263267
68.009497869018190385759 6273.84151371641655714 68.009497869018190385759 410.72972418300673780
70.009497869018190385759 6280.87553836684946873 70.009497869018190385759 409.04155899720518619
72.009497869018218807469 6287.60362712411279063 72.009497869018218807469 407.35612265549730182
74.009497869018190385759 6294.04538450967720564 74.009497869018190385759 405.72047226125840780
76.009497869018190385759 6300.21874770190788695 76.009497869018190385759 404.11897980509371564
78.009497869018190385759 6306.14043774087986094 78.009497869018190385759 402.53959557624659737
80.009497869018190385759 6311.82553246236057021 80.009497869018190385759 401.00455159353884937
82.009497869018218807469 6317.28797504636895610 82.009497869018218807469 399.50891151700506043
84.009497869018190385759 6322.54085224087612005 84.009497869018190385759 398.06417742895791889
86.009497869018190385759 6327.59598839651607705 86.009497869018190385759 396.62500066393738507
88.009497869018190385759 6332.46434050266179838 88.009497869018190385759 395.24392338453617413
91.009497869018218807469 6339.43927763694864552 91.009497869018218807469 393.22076099061047216
94.009497869018190385759 6346.04870906104042660 94.009497869018190385759 391.27737674134772305
97.009497869018190385759 6352.32103892485520191 97.009497869018190385759 389.39904909272763689
99.504748934509109403734 6357.29980280717154528 99.504748934509109403734 388.19422836999558513
nan nan nan nan

