Time Pressure difference Time.1 Pressure.1 difference.1
(hr) (psi) (hr) (psi)
0.000200000000006639311 0.31459824871772557 0.000200000000006639311 0.25078647416314154
0.000399999999999067768 0.62901832111663458 0.000399999999999067768 0.65644070199151061
0.000600000000005707079 0.94328738960091163 0.000600000000005707079 0.96043762041807568
0.000799999999998135536 1.25741846959314785 0.000799999999998135536 1.26992010300929525
0.001007140329434719206 1.58262551937470941 0.001007140329434719206 1.59480338514258801
0.001267914553963578328 1.99184491183627288 0.001267914553963578328 2.00669164558110369
0.001596209851982166583 2.50672904275396302 0.001596209851982166583 2.52467944208376194
0.002009509145210586212 3.15448354833617017 0.002009509145210586212 3.17594844141216148
0.002529822128138903281 3.96927692345664784 0.002529822128138903281 3.99456388649912597
0.003184857364445292660 4.99400002287178690 0.003184857364445292660 5.02317439219051121
0.004009497869020606231 6.28245795153774367 0.004009497869020606231 6.31510770065405946
0.005047658755842121536 7.90209388917061606 0.005047658755842121536 7.93694136156898100
0.006354625877804664924 9.93736355023079021 0.006354625877804664924 9.97163528979347191
0.008000000000009777068 12.49389960492733742 0.008000000000009777068 12.52231675627776397
0.010071403294347192059 15.70362605486072027 0.010071403294347192059 15.71680323150604686
0.012679145539692626699 19.73100058952305247 0.012679145539692626699 19.71292766903414062
0.015962098519750611558 24.78057368049484310 0.015962098519750611558 24.70468350864192786
0.020095091452091651263 31.10604889629835412 0.020095091452091651263 30.92911665489216944
0.025298221281346400247 39.02099741381456255 0.025298221281346400247 38.67373522209520331
0.031848573644282396344 48.91130223140611122 0.031848573644282396344 48.28395153785258032
0.040094978690191851456 61.24925640590756615 0.040094978690191851456 60.16966985117581856
0.050476587558421215363 76.60897518350330415 0.050476587558421215363 74.80953068814646656
0.063546258777947173257 95.68235018714551643 0.063546258777947173257 92.75045371483000167
0.079999999999998294697 119.29410532807982293 0.079999999999998294697 114.59892218849043388
0.100714032943542974863 148.41352614059368875 0.100714032943542974863 140.99888512549406983
0.126791455396897845276 184.15904066015889384 0.126791455396897845276 172.58924771838570678
0.159620985197506115583 227.78996429511110478 0.159620985197506115583 209.93185595925572784
0.200950914520774404082 280.67738523094169523 0.200950914520774404082 253.39915277805854998
0.252982212813464002465 344.24353174484969031 0.252982212813464002465 303.01044442411620139
0.318485736442795541734 419.85657731070671161 0.318485736442795541734 358.20944360508656246
0.400949786901819038576 508.66703626561383089 0.400949786901819038576 417.58821142994935371
0.504765875584169521062 611.37544319131097836 0.504765875584169521062 478.59126583145268796
0.635462587779443310865 727.93365331941265595 0.635462587779443310865 537.28572706484374066
0.799999999999997157829 857.20986034343570736 0.799999999999997157829 588.35522790458753661
1.007140329435330272645 996.69308929109809014 1.007140329435330272645 625.53260215584339221
1.267914553968893187630 1142.36623004893226607 1.267914553968893187630 642.65086121393903795
1.596209851975103788391 1288.90399313523084857 1.596209851975103788391 635.27289226090056218
2.009509145207687197399 1430.30176795158035929 2.009509145207687197399 602.45864955070499036
2.529822128134711078928 1560.88192678628615795 2.529822128134711078928 547.85339251357765988
3.184857364427983839050 1676.40322305401969061 3.184857364427983839050 479.30176660360069718
4.009497869018190385759 1774.85718900894130456 4.009497869018190385759 406.78370551295836322
5.009497869018190385759 1854.16708129707694752 5.009497869018190385759 341.30745481375055306
6.009497869018190385759 1908.74115095498655137 6.009497869018190385759 295.37934178088880799
7.009497869018204596614 1948.89838072735506103 7.009497869018204596614 263.42759903694673085
8.009497869018190385759 1980.04508461689238175 8.009497869018190385759 240.93952171823377739
9.009497869018204596614 2005.21219081786739480 9.009497869018204596614 225.17939063429068369
10.009497869018190385759 2026.20165160962005757 10.009497869018190385759 213.93576827474788615
11.009497869018190385759 2044.14314607971346049 11.009497869018190385759 204.81558885871714892
12.009497869018190385759 2059.77684295947619830 12.009497869018190385759 197.86147227440471852
13.009497869018190385759 2073.60861248599758255 13.009497869018190385759 192.44633240289243759
14.009497869018204596614 2085.99642987145671214 14.009497869018204596614 188.14548093035799070
15.009497869018190385759 2097.20165214854296210 15.009497869018190385759 184.66491256741178972
16.009497869018190385759 2107.42040462007116730 16.009497869018190385759 181.79879880068747866
17.009497869018190385759 2116.80350112375253957 17.009497869018190385759 179.45500096395932133
18.009497869018190385759 2125.46937091013705867 18.009497869018190385759 177.40294841613334142
19.009497869018204596614 2133.51241374502797044 19.009497869018204596614 175.70570091191339657
20.009497869018190385759 2141.00948294981299114 20.009497869018190385759 174.14897670610514524
21.009497869018204596614 2148.02407250466467303 21.009497869018204596614 172.77764319336506560
22.009497869018190385759 2154.60883846055139657 22.009497869018190385759 171.55672716837082703
23.009497869018190385759 2160.80835027948251081 23.009497869018190385759 170.47825675950531377
24.009497869018190385759 2166.66062494210109435 24.009497869018190385759 169.47899959990681396
25.009497869018190385759 2172.19811326326089329 25.009497869018190385759 168.56569507041271549
26.009497869018204596614 2177.44919208737519511 26.009497869018204596614 167.74346226501432966
27.009497869018190385759 2182.43829361545476786 27.009497869018190385759 166.96011909210440649
28.009497869018190385759 2187.18712721220299500 28.009497869018190385759 166.22960456863199852
29.009497869018190385759 2191.71460318092931630 29.009497869018190385759 165.54986940969533293
30.009497869018190385759 2196.03769649895002658 30.009497869018190385759 164.90280411058972732
31.009497869018190385759 2200.17139119031617156 31.009497869018190385759 164.29032613691776987
32.009497869018190385759 2204.12917850671601627 32.009497869018190385759 163.70741885032481377
33.009497869018190385759 2207.92317104767789715 33.009497869018190385759 163.15401922263350798
34.009497869018190385759 2211.56424786768366175 34.009497869018190385759 162.61917616406827847
35.009497869018190385759 2215.06235421424980814 35.009497869018190385759 162.10312486191719472
36.009497869018190385759 2218.42642116849219747 36.009497869018190385759 161.60610395244279403
37.009497869018190385759 2221.66463787045495337 37.009497869018190385759 161.12519996433604774
38.009497869018190385759 2224.78449268304393627 38.009497869018190385759 160.65862500086686282
39.009497869018190385759 2227.79279925259697848 39.009497869018190385759 160.20139461358198218
40.009497869018190385759 2230.69585221295574229 40.009497869018190385759 159.75019204341433010
41.009497869018190385759 2233.49944794595876374 41.009497869018190385759 159.32202727946204845
42.009497869018190385759 2236.20890719038698080 42.009497869018190385759 158.89358248564650467
43.009497869018190385759 2238.82916718315391336 43.009497869018190385759 158.48389671027121040
44.009497869018218807469 2241.36480800689878379 44.009497869018218807469 158.07125525313509229
46.009497869018190385759 2246.19888147474148354 46.009497869018190385759 157.27043373381346214
48.009497869018190385759 2250.74165879695920012 48.009497869018190385759 156.49985921627609287
50.009497869018190385759 2255.01970731481060284 50.009497869018190385759 155.73700823217359357
52.009497869018190385759 2259.05626155739992100 52.009497869018190385759 154.99576407515351661
54.009497869018190385759 2262.87183047679445735 54.009497869018190385759 154.27971055783140741
56.009497869018190385759 2266.48449210036869772 56.009497869018190385759 153.57802320936571050
58.009497869018218807469 2269.91041084489916102 58.009497869018218807469 152.85661012578296436
60.009497869018190385759 2273.16391627027769573 60.009497869018190385759 152.18218672021600923
62.009497869018190385759 2276.25796081269027127 62.009497869018190385759 151.51981874810724094
64.009497869018190385759 2279.20411327723149952 64.009497869018190385759 150.86882498526122731
66.009497869018190385759 2282.01286173702283122 66.009497869018190385759 150.21812360893000005
68.009497869018190385759 2284.69373042852157596 68.009497869018190385759 149.57209608976546633
70.009497869018190385759 2287.25525385613582330 70.009497869018190385759 148.95733073308630878
72.009497869018218807469 2289.70536710300029881 72.009497869018218807469 148.34355911731984179
74.009497869018190385759 2292.05120938791696972 74.009497869018190385759 147.74791764427331486
76.009497869018190385759 2294.29931274693763044 76.009497869018190385759 147.16471518913820660
78.009497869018190385759 2296.45576634494454993 78.009497869018190385759 146.58956370695685223
80.009497869018190385759 2298.52606095450119028 80.009497869018190385759 146.03055925082628619
82.009497869018218807469 2300.51527414983411290 82.009497869018218807469 145.48590419405385887
84.009497869018190385759 2302.42817162529036068 84.009497869018190385759 144.95978715621009769
86.009497869018190385759 2304.26905935826880523 86.009497869018190385759 144.43569388339918191
88.009497869018190385759 2306.04192746628723398 88.009497869018190385759 143.93275822673859921
91.009497869018218807469 2308.58193347472706591 91.009497869018218807469 143.19599966710092076
94.009497869018190385759 2310.98883624766222056 94.009497869018190385759 142.48829326419021868
97.009497869018190385759 2313.27297949286639778 97.009497869018190385759 141.80427799330544758
99.504748934509109403734 2315.08605535752485594 99.504748934509109403734 141.36552825034519287
nan nan nan nan

