Time Pressure difference Time.1 Pressure.1 difference.1
(hr) (psi) (hr) (psi)
0.000200000000006639311 0.48105234856837403 0.000200000000006639311 0.38347773033411581
0.000399999999999067768 0.96183224763337249 0.000399999999999067768 1.00376382473834158
0.000600000000005707079 1.44238124653261091 0.000600000000005707079 1.46860567354933269
0.000799999999998135536 1.92271924715565978 0.000799999999998135536 1.94183550142691153
0.001007140329434719206 2.41999351904386772 0.001007140329434719206 2.43861470003284664
0.001267914553963578328 3.04573110857504092 0.001267914553963578328 3.06843325699967684
0.001596209851982166583 3.83304070558674770 0.001596209851982166583 3.86048867069950941
0.002009509145210586212 4.82352246279975283 0.002009509145210586212 4.85634444215933669
0.002529822128138903281 6.06942344380408105 0.002529822128138903281 6.10808975237167928
0.003184857364445292660 7.63632807730130470 0.003184857364445292660 7.68093862086273926
0.004009497869020606231 9.60650977774819026 0.004009497869020606231 9.65643452639694821
0.005047658755842121536 12.08309594693284694 0.005047658755842121536 12.13638123541500491
0.006354625877804664924 15.19522786252221458 0.006354625877804664924 15.24763279762070489
0.008000000000009777068 19.10442849642328511 0.008000000000009777068 19.14788117758874719
0.010071403294347192059 24.01242290928437839 0.010071403294347192059 24.03257213706480400
0.012679145539692626699 30.17068344112255218 0.012679145539692626699 30.14304812884056872
0.015962098519750611558 37.89198832625930891 0.015962098519750611558 37.77594462432548994
0.020095091452091651263 47.56427582555674149 0.020095091452091651263 47.29372864160760770
0.025298221281346400247 59.66702779149422042 0.025298221281346400247 59.13602899039954508
0.031848573644282396344 74.79029812103897257 0.031848573644282396344 73.83101584359467040
0.040094978690191851456 93.65627037728722826 0.040094978690191851456 92.00547400523710451
0.050476587558421215363 117.14282448694419259 0.050476587558421215363 114.39129295700703892
0.063546258777947173257 146.30793229674631561 0.063546258777947173257 141.82476784966067385
0.079999999999998294697 182.41267957574109460 0.079999999999998294697 175.23327255277109771
0.100714032943542974863 226.93920134725698290 0.100714032943542974863 215.60146984797771097
0.126791455396897845276 281.59768651209481050 0.126791455396897845276 263.90631000324589195
0.159620985197506115583 348.31375492744501798 0.159620985197506115583 321.00691202235401533
0.200950914520774404082 429.18393826318600759 0.200950914520774404082 387.47277858655513683
0.252982212813464002465 526.38296653048439566 0.252982212813464002465 463.33343089190259434
0.318485736442795541734 642.00291451213888649 0.318485736442795541734 547.73824974534397825
0.400949786901819038576 777.80303428974809776 0.400949786901819038576 638.53435504367917019
0.504765875584169521062 934.85451366290408259 0.504765875584169521062 731.81415780576628549
0.635462587779443310865 1113.08373444079484216 0.635462587779443310865 821.56388953301507172
0.799999999999997157829 1310.76005100133829728 0.799999999999997157829 899.65429028796711464
1.007140329435330272645 1524.04393018585892605 1.007140329435330272645 956.50223292613088688
1.267914553968893187630 1746.79280679439921187 1.267914553968893187630 982.67777190914489438
1.596209851975103788391 1970.86377786286607261 1.596209851975103788391 971.39611567936651682
2.009509145207687197399 2187.07519014818399228 2.009509145207687197399 921.21983978917330660
2.529822128134711078928 2386.74538011236381863 2.529822128134711078928 837.72291236203147946
3.184857364427983839050 2563.38905535773392330 3.184857364427983839050 732.90058491238414717
4.009497869018190385759 2713.93506679144957161 4.009497869018190385759 622.01317932933852717
5.009497869018190385759 2835.20786505214391582 5.009497869018190385759 521.89340974166088927
6.009497869018190385759 2918.65710384122257892 6.009497869018190385759 451.66470780252308259
7.009497869018204596614 2980.06154513336286982 7.009497869018204596614 402.80728106707726965
8.009497869018190385759 3027.68798653059229764 8.009497869018190385759 368.42075014057974158
9.009497869018204596614 3066.17102193843220448 9.009497869018204596614 344.32192536142861172
10.009497869018190385759 3098.26601754063631233 10.009497869018190385759 327.12929646244515425
11.009497869018190385759 3125.70036622771021939 11.009497869018190385759 313.18362529190079613
12.009497869018190385759 3149.60586039835288830 12.009497869018190385759 302.55008194340194905
13.009497869018190385759 3170.75602649975235181 13.009497869018190385759 294.26978870071906158
14.009497869018204596614 3189.69824461825965045 14.009497869018204596614 287.69335443848387968
15.009497869018190385759 3206.83215593084105421 15.009497869018190385759 282.37121551313231294
16.009497869018190385759 3222.45765574180177282 16.009497869018190385759 277.98863943597183379
17.009497869018190385759 3236.80535357018243303 17.009497869018190385759 274.40473692372614778
18.009497869018190385759 3250.05633964565868155 18.009497869018190385759 271.26694228710340440
19.009497869018204596614 3262.35496070006956870 19.009497869018204596614 268.67168023038613001
20.009497869018190385759 3273.81873318780935733 20.009497869018190385759 266.29129242362108698
21.009497869018204596614 3284.54474578755571201 21.009497869018204596614 264.19438562371692569
22.009497869018190385759 3294.61351489470507659 22.009497869018190385759 262.32748228391096745
23.009497869018190385759 3304.09319169719810816 23.009497869018190385759 260.67839261109543258
24.009497869018190385759 3313.04190798025001641 24.009497869018190385759 259.15042795964586730
25.009497869018190385759 3321.50928430202293384 25.009497869018190385759 257.75389352036654600
26.009497869018204596614 3329.53871171032506027 26.009497869018204596614 256.49661690258807312
27.009497869018190385759 3337.16754949664800733 27.009497869018190385759 255.29880644242413723
28.009497869018190385759 3344.42899346204649191 28.009497869018190385759 254.18177629806692153
29.009497869018190385759 3351.35195936131549388 29.009497869018190385759 253.14239290688860251
30.009497869018190385759 3357.96240364125196720 30.009497869018190385759 252.15296501566362508
31.009497869018190385759 3364.28323838095911924 31.009497869018190385759 251.21642462205949187
32.009497869018190385759 3370.33509306053429100 32.009497869018190385759 250.32510078171358714
33.009497869018190385759 3376.13648906232265290 33.009497869018190385759 249.47889711820678826
34.009497869018190385759 3381.70406155428872808 34.009497869018190385759 248.66106831436897551
35.009497869018190385759 3387.05301781967273200 35.009497869018190385759 247.87197399520670160
36.009497869018190385759 3392.19701437933463239 36.009497869018190385759 247.11197905955535248
37.009497869018190385759 3397.14857325164803115 37.009497869018190385759 246.37662851689481158
38.009497869018190385759 3401.91914489629562013 38.009497869018190385759 245.66318849338901487
39.009497869018190385759 3406.51914806349532228 39.009497869018190385759 244.96403726627085007
40.009497869018190385759 3410.95820788118680866 40.009497869018190385759 244.27410317749598789
41.009497869018190385759 3415.24518759990587569 41.009497869018190385759 243.61939621039431358
42.009497869018190385759 3419.38822316413643421 42.009497869018190385759 242.96426104948062630
43.009497869018190385759 3423.39486410545760009 43.009497869018190385759 242.33781031358930136
44.009497869018218807469 3427.27211383065514383 44.009497869018218807469 241.70684004315367588
46.009497869018190385759 3434.66389812804345638 46.009497869018190385759 240.48230343424384614
48.009497869018190385759 3441.61026133503264646 48.009497869018190385759 239.30401753176610669
50.009497869018190385759 3448.15182758719720368 50.009497869018190385759 238.13754168835012592
52.009497869018190385759 3454.32412481528399439 52.009497869018190385759 237.00410485565802787
54.009497869018190385759 3460.15851326874962979 54.009497869018190385759 235.90918704345651236
56.009497869018190385759 3465.68263606881782835 56.009497869018190385759 234.83623654765440847
58.009497869018218807469 3470.92121023373374555 58.009497869018218807469 233.73312341984802742
60.009497869018190385759 3475.89614710111254681 60.009497869018190385759 232.70186223355781863
62.009497869018190385759 3480.62725224797577539 62.009497869018190385759 231.68903501694703095
64.009497869018190385759 3485.13221554031724736 64.009497869018190385759 230.69360010973807107
66.009497869018190385759 3489.42707429629490434 66.009497869018190385759 229.69861229090352595
68.009497869018190385759 3493.52639203091439413 68.009497869018190385759 228.71077126953554171
70.009497869018190385759 3497.44321885938234118 70.009497869018190385759 227.77073323736473753
72.009497869018218807469 3501.18968832151949755 72.009497869018218807469 226.83221473494938891
74.009497869018190385759 3504.77671700057135240 74.009497869018190385759 225.92141904335971958
76.009497869018190385759 3508.21429303632248775 76.009497869018190385759 225.02964386063987945
78.009497869018190385759 3511.51172737401611812 78.009497869018190385759 224.15017942492343650
80.009497869018190385759 3514.67741595688266898 80.009497869018190385759 223.29540541528461972
82.009497869018218807469 3517.71912290635964382 82.009497869018218807469 222.46257307979664120
84.009497869018190385759 3520.64413544819490198 84.009497869018190385759 221.65808723886092935
86.009497869018190385759 3523.45903785470773073 86.009497869018190385759 220.85669593810771971
88.009497869018190385759 3526.16993141670354817 88.009497869018190385759 220.08765675940452411
91.009497869018218807469 3530.05385594812787531 91.009497869018218807469 218.96107885604322973
94.009497869018190385759 3533.73425225171649799 94.009497869018190385759 217.87892462090457002
97.009497869018190385759 3537.22693689649986482 97.009497869018190385759 216.83299650828186600
99.504748934509109403734 3539.99931216044842586 99.504748934509109403734 216.16210404417864765
nan nan nan nan

