Time Pressure difference Time.1 Pressure.1 difference.1
(hr) (psi) (hr) (psi)
0.000200000000006639311 0.83643185174950840 0.000200000000006639311 0.66677356225914608
0.000399999999999067768 1.67238998074660783 0.000399999999999067768 1.74529869180282593
0.000600000000005707079 2.50794663108178906 0.000600000000005707079 2.55354446698456616
0.000799999999998135536 3.34313640725162342 0.000799999999998135536 3.37637487704852246
0.001007140329434719206 4.20777419833752031 0.001007140329434719206 4.24015185732354727
0.001267914553963578328 5.29577813861231217 0.001267914553963578328 5.33525159737833121
0.001596209851982166583 6.66471610573474305 0.001596209851982166583 6.71244137379412997
0.002009509145210586212 8.38692054517950147 0.002009509145210586212 8.44398990375455583
0.002529822128138903281 10.55323626474585019 0.002529822128138903281 10.62046747600958163
0.003184857364445292660 13.27769847350832322 0.003184857364445292660 13.35526524907794688
0.004009497869020606231 16.70336042670749421 0.004009497869020606231 16.79016729935801422
0.005047658755842121536 21.00953534025520852 0.005047658755842121536 21.10218536607625950
0.006354625877804664924 26.42076816926440586 0.006354625877804664924 26.51188747683184843
0.008000000000009777068 33.21790767976712289 0.008000000000009777068 33.29346121708770312
0.010071403294347192059 41.75170419347890061 0.010071403294347192059 41.78673875043275387
0.012679145539692626699 52.45940632928748215 0.012679145539692626699 52.41135531052728425
0.015962098519750611558 65.88485859496644537 0.015962098519750611558 65.68308710630988401
0.020095091452091651263 82.70259031952339512 0.020095091452091651263 82.23217523324505862
0.025298221281346400247 103.74630264784029521 0.025298221281346400247 102.82302618572930442
0.031848573644282396344 130.04195434540514498 0.031848573644282396344 128.37399813635406076
0.040094978690191851456 162.84524520618279553 0.040094978690191851456 159.97491587415794356
0.050476587558421215363 203.68259274979050133 0.050476587558421215363 198.89835540102433242
0.063546258777947173257 254.39355010074402230 0.063546258777947173257 246.59842852752416320
0.079999999999998294697 317.17083559449793029 0.079999999999998294697 304.68761058051029522
0.100714032943542974863 394.59151791348318739 0.100714032943542974863 374.87798823048024133
0.126791455396897845276 489.62919540597800960 0.126791455396897845276 458.86823798142233954
0.159620985197506115583 605.63204792747797001 0.159620985197506115583 558.15215671706880585
0.200950914520774404082 746.24542898702748062 0.200950914520774404082 673.71996968769542491
0.252982212813464002465 915.25065979781459191 0.252982212813464002465 805.62300700062644410
0.318485736442795541734 1116.28534443719649971 0.318485736442795541734 952.38225085479371046
0.400949786901819038576 1352.40839007127465266 0.400949786901819038576 1110.25437165899234060
0.504765875584169521062 1625.48232911975537718 0.504765875584169521062 1272.44503217092596969
0.635462587779443310865 1935.37915763494629573 0.635462587779443310865 1428.49776640256072824
0.799999999999997157829 2279.08970805596027276 0.799999999999997157829 1564.27778847648278315
1.007140329435330272645 2649.93797549617374898 1.007140329435330272645 1663.12239462069464935
1.267914553968893187630 3037.24354814597108998 1.267914553968893187630 1708.63522624340953371
1.596209851975103788391 3426.84791825636739304 1.596209851975103788391 1689.01919767779145332
2.009509145207687197399 3802.78644653793207908 2.009509145207687197399 1601.77498094830298214
2.529822128134711078928 4149.96385296353855665 2.529822128134711078928 1456.59433723848019326
3.184857364427983839050 4457.10380732616340538 3.184857364427983839050 1274.33406200163676658
4.009497869018190385759 4718.86633585710569605 4.009497869018190385759 1081.52810592730997996
5.009497869018190385759 4929.72993836921250477 5.009497869018190385759 907.44442351274949488
6.009497869018190385759 5074.82766325333705026 6.009497869018190385759 785.33396425871217161
7.009497869018204596614 5181.59490114018990425 7.009497869018204596614 700.38290220140595466
8.009497869018190385759 5264.40558211634106556 8.009497869018190385759 640.59317282228823842
9.009497869018204596614 5331.31812638083738420 9.009497869018204596614 598.69123700386808196
10.009497869018190385759 5387.12343880335447466 10.009497869018190385759 568.79747914317886170
11.009497869018190385759 5434.82503124368395220 11.009497869018190385759 544.54938307674797215
12.009497869018190385759 5476.39081263035404845 12.009497869018190385759 526.06026358671101661
13.009497869018190385759 5513.16575541911970504 13.009497869018190385759 511.66286789657908685
14.009497869018204596614 5546.10161910268379870 14.009497869018204596614 500.22806437833264681
15.009497869018190385759 5575.89328150604796974 15.009497869018190385759 490.97417230224561990
16.009497869018190385759 5603.06218688669650874 16.009497869018190385759 483.35394919230395772
17.009497869018190385759 5628.00930854330999864 17.009497869018190385759 477.12242319782831146
18.009497869018190385759 5651.04951789599908807 18.009497869018190385759 471.66656920162438382
19.009497869018204596614 5672.43379844908304221 19.009497869018204596614 467.15404607532536829
20.009497869018190385759 5692.36648244593106938 20.009497869018190385759 463.01513648051769678
21.009497869018204596614 5711.01638324652776646 21.009497869018204596614 459.36913071251819929
22.009497869018190385759 5728.52349908162432257 22.009497869018190385759 456.12304445558908128
23.009497869018190385759 5745.00632812402091076 23.009497869018190385759 453.25568265424038827
24.009497869018190385759 5760.56594726669754891 24.009497869018190385759 450.59892750768875658
25.009497869018190385759 5775.28863446978084539 25.009497869018190385759 448.17069721101790947
26.009497869018204596614 5789.24983610532308376 26.009497869018204596614 445.98460205380797561
27.009497869018190385759 5802.51451080299557361 27.009497869018190385759 443.90190393535692692
28.009497869018190385759 5815.14037790546080942 28.009497869018190385759 441.95966294041045330
29.009497869018190385759 5827.17771480643932591 29.009497869018190385759 440.15243057339631605
30.009497869018190385759 5838.67165339006623981 30.009497869018190385759 438.43205854799646204
31.009497869018190385759 5849.66203213298194896 31.009497869018190385759 436.80364488783698107
32.009497869018190385759 5860.18472063293575047 32.009497869018190385759 435.25385170522866929
33.009497869018190385759 5870.27192302358798770 33.009497869018190385759 433.78251142525573414
34.009497869018190385759 5879.95256377519035595 34.009497869018190385759 432.36050805526087970
35.009497869018190385759 5889.25308461725126108 35.009497869018190385759 430.98846689477983318
36.009497869018190385759 5898.19723088448245107 36.009497869018190385759 429.66702241324077249
37.009497869018190385759 5906.80677529049535224 37.009497869018190385759 428.38842847660771440
38.009497869018190385759 5915.10162737158589152 38.009497869018190385759 427.14793154992383961
39.009497869018190385759 5923.09990277476299525 39.009497869018190385759 425.93227932976162720
40.009497869018190385759 5930.81833723285944870 40.009497869018190385759 424.73265344876028848
41.009497869018190385759 5938.27234176108140673 41.009497869018190385759 423.59427887793481204
42.009497869018190385759 5945.47606276809165138 42.009497869018190385759 422.45515978326648110
43.009497869018190385759 5952.44262703457570751 43.009497869018190385759 421.36591585667343907
44.009497869018218807469 5959.18421176437459508 44.009497869018218807469 420.26881356984330296
46.009497869018190385759 5972.03670868284370954 46.009497869018190385759 418.13964524466274497
48.009497869018190385759 5984.11472775382026157 48.009497869018190385759 416.09089553533726757
50.009497869018190385759 5995.48890436874262377 50.009497869018190385759 414.06268061728701468
52.009497869018190385759 6006.22101287086570665 52.009497869018190385759 412.09191242203519323
54.009497869018190385759 6016.36558102957314986 54.009497869018190385759 410.18811934026604149
56.009497869018190385759 6025.97067344145671086 56.009497869018190385759 408.32252202490082027
58.009497869018218807469 6035.07926692889759579 58.009497869018218807469 406.40447930267691845
60.009497869018190385759 6043.72945992494533130 60.009497869018190385759 404.61136945454256875
62.009497869018190385759 6051.95568946231014706 62.009497869018190385759 402.85031175092001376
64.009497869018190385759 6059.78871387200524623 64.009497869018190385759 401.11949500049615835
66.009497869018190385759 6067.25641811033892736 66.009497869018190385759 399.38945562691702662
68.009497869018190385759 6074.38412455202251294 68.009497869018190385759 397.67184277834468276
70.009497869018190385759 6081.19452414131319529 70.009497869018190385759 396.03734758399923521
72.009497869018218807469 6087.70871412305768899 72.009497869018218807469 394.40549447858847998
74.009497869018190385759 6093.94567575358814793 74.009497869018190385759 392.82184453040912331
76.009497869018190385759 6099.92277595415907854 76.009497869018190385759 391.27126657429596435
78.009497869018190385759 6105.65620417108311813 78.009497869018190385759 389.74209398278213712
80.009497869018190385759 6111.16055888696701004 80.009497869018190385759 388.25585197640322122
82.009497869018218807469 6116.44934000154171372 82.009497869018218807469 386.80776115085751599
84.009497869018190385759 6121.53521821009690029 84.009497869018190385759 385.40895791532051362
86.009497869018190385759 6126.42964194460455474 86.009497869018190385759 384.01553532491044507
88.009497869018190385759 6131.14321985084370681 88.009497869018190385759 382.67836512664626980
91.009497869018218807469 6137.89641042883795308 91.009497869018218807469 380.71952292443501165
94.009497869018190385759 6144.29571542037137988 94.009497869018190385759 378.83792256748978389
97.009497869018190385759 6150.36863595325667120 97.009497869018190385759 377.01931053775649616
99.504748934509109403734 6155.18911543468948366 99.504748934509109403734 375.85279336401305272
nan nan nan nan

