Time Pressure difference Time.1 Pressure.1 difference.1
(hr) (psi) (hr) (psi)
0.000200000000006639311 0.16811864084915493 0.000200000000006639311 0.13401816873268407
0.000399999999999067768 0.33614206578190525 0.000399999999999067768 0.35079635397429931
0.000600000000005707079 0.50408479550101626 0.000600000000005707079 0.51324973366256954
0.000799999999998135536 0.67195378533813721 0.000799999999998135536 0.67863455240179260
0.001007140329434719206 0.84574167966585001 0.001007140329434719206 0.85224942803916093
0.001267914553963578328 1.06442505870615611 0.001267914553963578328 1.07235902753275925
0.001596209851982166583 1.33957477946111259 0.001596209851982166583 1.34916732090190461
0.002009509145210586212 1.68572930360821815 0.002009509145210586212 1.69719996075464707
0.002529822128138903281 2.12114798555090722 0.002529822128138903281 2.13466112453127899
0.003184857364445292660 2.66875133497381212 0.003184857364445292660 2.68434187095895016
0.004009497869020606231 3.35729234447255065 0.004009497869020606231 3.37474009400031694
0.005047658755842121536 4.22281207833985306 0.005047658755842121536 4.24143427258448202
0.006354625877804664924 5.31044295541433797 0.006354625877804664924 5.32875748290550622
0.008000000000009777068 6.67663418041090484 0.008000000000009777068 6.69182006552409536
0.010071403294347192059 8.39188482296789751 0.010071403294347192059 8.39892659461434299
0.012679145539692626699 10.54407968011549279 0.012679145539692626699 10.53442166440448879
0.015962098519750611558 13.24252879222211199 0.015962098519750611558 13.20197372684039472
0.020095091452091651263 16.62280919855097139 0.020095091452091651263 16.52825810658258732
0.025298221281346400247 20.85249068145645879 0.025298221281346400247 20.66691670598738284
0.031848573644282396344 26.13778584852919451 0.031848573644282396344 25.80253494879952214
0.040094978690191851456 32.73108411109345894 0.040094978690191851456 32.15416219560189859
0.050476587558421215363 40.93918779647530926 0.050476587558421215363 39.97757989154917624
0.063546258777947173257 51.13183793069681116 0.063546258777947173257 49.56505727617899026
0.079999999999998294697 63.74975999013788197 0.079999999999998294697 61.24069386792345426
0.100714032943542974863 79.31093195872995238 0.100714032943542974863 75.34861056970846960
0.126791455396897845276 98.41303231045526445 0.126791455396897845276 92.23023290770876770
0.159620985197506115583 121.72902853865724637 0.159620985197506115583 112.18580662372926326
0.200950914520774404082 149.99161856256674241 0.200950914520774404082 135.41436206658156038
0.252982212813464002465 183.96082913349110299 0.252982212813464002465 161.92621633246420743
0.318485736442795541734 224.36780057344645911 0.318485736442795541734 191.42409420166001155
0.400949786901819038576 271.82735800437563967 0.400949786901819038576 223.15560504986711976
0.504765875584169521062 326.71386117630908075 0.504765875584169521062 255.75512089405674487
0.635462587779443310865 389.00158193259619566 0.635462587779443310865 287.12094409285305119
0.799999999999997157829 458.08569256448151918 0.799999999999997157829 314.41205300721344429
1.007140329435330272645 532.62434930370852726 1.007140329435330272645 334.27932707799038781
1.267914553968893187630 610.47084251292153567 1.267914553968893187630 343.42717980215792295
1.596209851975103788391 688.77938257491166496 1.596209851975103788391 339.48445565265063806
2.009509145207687197399 764.34115641856931234 2.009509145207687197399 321.94880214085293346
2.529822128134711078928 834.12208785933808031 2.529822128134711078928 292.76821504693828047
3.184857364427983839050 895.85569062675119767 3.184857364427983839050 256.13480649187130211
4.009497869018190385759 948.46865656033367031 4.009497869018190385759 217.38176855454389624
5.009497869018190385759 990.85119159261773802 5.009497869018190385759 182.39181447718945606
6.009497869018190385759 1020.01511241509854244 6.009497869018190385759 157.84821968185062246
7.009497869018204596614 1041.47479605006810743 7.009497869018204596614 140.77347885043187148
8.009497869018190385759 1058.11933093283687413 8.009497869018190385759 128.75604070656936528
9.009497869018204596614 1071.56841943177050780 9.009497869018204596614 120.33396007440930475
10.009497869018190385759 1082.78500959032612627 10.009497869018190385759 114.32546346957427374
11.009497869018190385759 1092.37279234947664008 11.009497869018190385759 109.45171679751551608
12.009497869018190385759 1100.72730761326511129 12.009497869018190385759 105.73549576568717612
13.009497869018190385759 1108.11888815389261254 13.009497869018190385759 102.84169086080494537
14.009497869018204596614 1114.73883289427067211 14.009497869018204596614 100.54335224320716691
15.009497869018190385759 1120.72680882012105030 15.009497869018190385759 98.68336597517772191
16.009497869018190385759 1126.18762363294808893 16.009497869018190385759 97.15173904163721375
17.009497869018190385759 1131.20187097089410599 17.009497869018190385759 95.89923331936449813
18.009497869018190385759 1135.83283842287733023 18.009497869018190385759 94.80263380967971898
19.009497869018204596614 1140.13097242459184599 19.009497869018204596614 93.89563911165743093
20.009497869018190385759 1144.13734274037619798 20.009497869018190385759 93.06373887469111139
21.009497869018204596614 1147.88588001572020403 21.009497869018204596614 92.33090985465540257
22.009497869018190385759 1151.40472319849573068 22.009497869018190385759 91.67846266669550914
23.009497869018190385759 1154.71768983189281244 23.009497869018190385759 91.10213721010602228
24.009497869018190385759 1157.84509586853027940 24.009497869018190385759 90.56814264333645781
25.009497869018190385759 1160.80428274914993381 25.009497869018190385759 90.08008043445335034
26.009497869018204596614 1163.61041481917914098 26.009497869018204596614 89.64068618394945531
27.009497869018190385759 1166.27654844000494450 27.009497869018190385759 89.22207422382298603
28.009497869018190385759 1168.81428491234146350 28.009497869018190385759 88.83169344672926115
29.009497869018190385759 1171.23372974218978015 29.009497869018190385759 88.46844873216522842
30.009497869018190385759 1173.54395421372487363 30.009497869018190385759 88.12266251412467000
31.009497869018190385759 1175.75296566254974096 31.009497869018190385759 87.79535946999310170
32.009497869018190385759 1177.86797369935629831 32.009497869018190385759 87.48385875070268014
33.009497869018190385759 1179.89545119479089408 33.009497869018190385759 87.18812667452901621
34.009497869018190385759 1181.84121182347098511 34.009497869018190385759 86.90231107180368042
35.009497869018190385759 1183.71057024147717129 35.009497869018190385759 86.62653762462241502
36.009497869018190385759 1185.50829914295081835 36.009497869018190385759 86.36093385818371360
37.009497869018190385759 1187.23877473500488122 37.009497869018190385759 86.10394283808435034
38.009497869018190385759 1188.90599873538349129 38.009497869018190385759 85.85460912744737527
39.009497869018190385759 1190.51361229900703620 39.009497869018190385759 85.61026907921576878
40.009497869018190385759 1192.06497922491280406 40.009497869018190385759 85.36915024542247465
41.009497869018190385759 1193.56319705048599644 41.009497869018190385759 85.14034262024161137
42.009497869018190385759 1195.01110913348702525 42.009497869018190385759 84.91138534947246796
43.009497869018190385759 1196.41135389152668722 43.009497869018190385759 84.69245273935128182
44.009497869018218807469 1197.76637888199365989 44.009497869018218807469 84.47194063791874896
46.009497869018190385759 1200.34966681983519265 46.009497869018190385759 84.04398839743470262
48.009497869018190385759 1202.77728856345424902 48.009497869018190385759 83.63219989864489889
50.009497869018190385759 1205.06344147511049414 50.009497869018190385759 83.22453879073827920
52.009497869018190385759 1207.22054189046252759 52.009497869018190385759 82.82842418830955467
54.009497869018190385759 1209.25954961987440583 54.009497869018190385759 82.44577125048132871
56.009497869018190385759 1211.19012540813355372 56.009497869018190385759 82.07079547167160172
58.009497869018218807469 1213.02090738272386261 58.009497869018218807469 81.68527842700571284
60.009497869018190385759 1214.75955313914300859 60.009497869018190385759 81.32487226847521811
62.009497869018190385759 1216.41298434963846375 62.009497869018190385759 80.97090843152820128
64.009497869018190385759 1217.98738328571630518 64.009497869018190385759 80.62302287572161674
66.009497869018190385759 1219.48835468486413447 66.009497869018190385759 80.27529356879327338
68.009497869018190385759 1220.92098821841636891 68.009497869018190385759 79.93006193156779204
70.009497869018190385759 1222.28984465327903308 70.009497869018190385759 79.60153652932123691
72.009497869018218807469 1223.59916443070392233 72.009497869018218807469 79.27354217380583634
74.009497869018190385759 1224.85276268878078554 74.009497869018190385759 78.95523641307727303
76.009497869018190385759 1226.05413009227868315 76.009497869018190385759 78.64357795821669583
78.009497869018190385759 1227.20652063936199738 78.009497869018190385759 78.33622187514625068
80.009497869018190385759 1228.31286855240546174 80.009497869018190385759 78.03749462610292653
82.009497869018218807469 1229.37588724409101815 82.009497869018218807469 77.74643557460021270
84.009497869018190385759 1230.39812346113376407 84.009497869018190385759 77.46528308347734537
86.009497869018190385759 1231.38187828140303282 86.009497869018190385759 77.18521207525563455
88.009497869018190385759 1232.32928398992066832 88.009497869018190385759 76.91644751799258017
91.009497869018218807469 1233.68664169813450826 91.009497869018218807469 76.52272998083171274
94.009497869018190385759 1234.97287016409472926 94.009497869018190385759 76.14453767028153663
97.009497869018190385759 1236.19349697766938334 97.009497869018190385759 75.77900570012619141
99.504748934509109403734 1237.16238937095249639 99.504748934509109403734 75.54454155177178620
nan nan nan nan

