Time Pressure difference Time.1 Pressure.1 difference.1
(hr) (psi) (hr) (psi)
0.000200000000006639311 0.66082277640707432 0.000200000000006639311 0.52678428699876811
0.000399999999999067768 1.32127128827144924 0.000399999999999067768 1.37887279730491907
0.000600000000005707079 1.98140261201884615 0.000600000000005707079 2.01742717093109025
0.000799999999998135536 2.64124408692317303 0.000799999999998135536 2.66750413171793754
0.001007140329434719206 3.32435095868655894 0.001007140329434719206 3.34993092011432569
0.001267914553963578328 4.18392820105291197 0.001267914553963578328 4.21511419733173653
0.001596209851982166583 5.26545730144615565 0.001596209851982166583 5.30316263760451623
0.002009509145210586212 6.62608449042042125 0.002009509145210586212 6.67117212296628548
0.002529822128138903281 8.33758168577930903 0.002529822128138903281 8.39069768751403622
0.003184857364445292660 10.49004237608518331 0.003184857364445292660 10.55132398782874503
0.004009497869020606231 13.19648575005547109 0.004009497869020606231 13.26506749819926689
0.005047658755842121536 16.59857816931605612 0.005047658755842121536 16.67177629916870529
0.006354625877804664924 20.87372131979694956 0.006354625877804664924 20.94571010607411665
0.008000000000009777068 26.24379969923890243 0.008000000000009777068 26.30349075260461333
0.010071403294347192059 32.98592351206193740 0.010071403294347192059 33.01360255506826036
0.012679145539692626699 41.44554092085001429 0.012679145539692626699 41.40757822543150013
0.015962098519750611558 52.05231614368493354 0.015962098519750611558 51.89290662926373443
0.020095091452091651263 65.33916090915579389 0.020095091452091651263 64.96750958726028102
0.025298221281346400247 81.96474059938826429 0.025298221281346400247 81.23530626016822964
0.031848573644282396344 102.73961368184248499 0.031848573644282396344 101.42184529379615299
0.040094978690191851456 128.65584546637728636 0.040094978690191851456 126.38814249162328451
0.050476587558421215363 160.91938173466036233 0.050476587558421215363 157.13959620737642808
0.063546258777947173257 200.98356097511518215 0.063546258777947173257 194.82502711527780548
0.079999999999998294697 250.58073976321526288 0.079999999999998294697 240.71837094619419872
0.100714032943542974863 311.74693057045340083 0.100714032943542974863 296.17226134826000816
0.126791455396897845276 386.83142403218562322 0.126791455396897845276 362.52873727089485101
0.159620985197506115583 478.47944881036562492 0.159620985197506115583 440.96797257050013741
0.200950914520774404082 589.57101553800987404 0.200950914520774404082 532.27229445973148358
0.252982212813464002465 723.09355609896999795 0.252982212813464002465 636.48225627711190100
0.318485736442795541734 881.92095868968556260 0.318485736442795541734 752.42936037682204642
0.400949786901819038576 1068.46991215581306278 0.400949786901819038576 877.15619014650746976
0.504765875584169521062 1284.21190977222454421 0.504765875584169521062 1005.29488113802506177
0.635462587779443310865 1529.04582205188808075 0.635462587779443310865 1128.58430499863993646
0.799999999999997157829 1800.59425691187311713 0.799999999999997157829 1235.85727766201716804
1.007140329435330272645 2093.58283835220072433 1.007140329435330272645 1313.94943415804118558
1.267914553968893187630 2399.57350967950333143 1.267914553968893187630 1349.90683545996716930
1.596209851975103788391 2707.38034536871191449 1.596209851975103788391 1334.40919697130993882
2.009509145207687197399 3004.39048612051556120 2.009509145207687197399 1265.48192524671912906
2.529822128134711078928 3278.67790970452733745 2.529822128134711078928 1150.78199379836155458
3.184857364427983839050 3521.33375424574478529 3.184857364427983839050 1006.78730868587024361
4.009497869018190385759 3728.13917479655901843 4.009497869018190385759 854.46101105102889051
5.009497869018190385759 3894.73191150761613244 5.009497869018190385759 716.92624106380401372
6.009497869018190385759 4009.36633295835736135 6.009497869018190385759 620.45290310588814009
7.009497869018204596614 4093.71776269185193087 7.009497869018204596614 553.33733765961835616
8.009497869018190385759 4159.14232059738696989 8.009497869018190385759 506.10047683671336927
9.009497869018204596614 4212.00655954864214436 9.009497869018204596614 472.99586286673758195
10.009497869018190385759 4256.09553274613335816 10.009497869018190385759 449.37830690515824017
11.009497869018190385759 4293.78216398754648253 11.009497869018190385759 430.22110463973916694
12.009497869018190385759 4326.62119923233876762 12.009497869018190385759 415.61378038591897166
13.009497869018190385759 4355.67523363460804831 13.009497869018190385759 404.23912150237185870
14.009497869018204596614 4381.69620454480627814 14.009497869018204596614 395.20505782725985000
15.009497869018190385759 4405.23310001572281180 15.009497869018190385759 387.89402269451045413
16.009497869018190385759 4426.69788695327133610 16.009497869018190385759 381.87366732207897257
17.009497869018190385759 4446.40735421232602675 17.009497869018190385759 376.95045176027434763
18.009497869018190385759 4464.61026588002278004 18.009497869018190385759 372.64005566775097122
19.009497869018204596614 4481.50491141151451302 19.009497869018204596614 369.07493789433664233
20.009497869018190385759 4497.25272344484528730 20.009497869018190385759 365.80499339853832907
21.009497869018204596614 4511.98707293307779764 21.009497869018204596614 362.92446744849701190
22.009497869018190385759 4525.81856544359197869 22.009497869018190385759 360.35989780869425658
23.009497869018190385759 4538.84082042833051673 23.009497869018190385759 358.09453933081277910
24.009497869018190385759 4551.13369366144979722 24.009497869018190385759 355.99557058816407107
25.009497869018190385759 4562.76534902388630144 25.009497869018190385759 354.07714784631662042
26.009497869018204596614 4573.79539290311004152 26.009497869018204596614 352.35002391116768194
27.009497869018190385759 4584.27514584833716071 27.009497869018190385759 350.70458878076948395
28.009497869018190385759 4594.25020901187690470 28.009497869018190385759 349.17012176585660654
29.009497869018190385759 4603.76030403613185626 29.009497869018190385759 347.74231828385740073
30.009497869018190385759 4612.84108735493737186 30.009497869018190385759 346.38313879314353017
31.009497869018190385759 4621.52403334685368463 31.009497869018190385759 345.09661098601247886
32.009497869018190385759 4629.83748077865766390 32.009497869018190385759 343.87219726761350103
33.009497869018190385759 4637.80687251813924377 33.009497869018190385759 342.70976524542589914
34.009497869018190385759 4645.45506033582205418 34.009497869018190385759 341.58631183669365328
35.009497869018190385759 4652.80293451353009004 35.009497869018190385759 340.50233105915941678
36.009497869018190385759 4659.86925504704413470 36.009497869018190385759 339.45832417523700997
37.009497869018190385759 4666.67122346333690075 37.009497869018190385759 338.44817135365826744
38.009497869018190385759 4673.22456928660631092 38.009497869018190385759 337.46811706531292430
39.009497869018190385759 4679.54360477926547901 39.009497869018190385759 336.50769133117489673
40.009497869018190385759 4685.64155200287586922 40.009497869018190385759 335.55992720230420900
41.009497869018190385759 4691.53058642616815632 41.009497869018190385759 334.66055465580120654
42.009497869018190385759 4697.22188441578600759 42.009497869018190385759 333.76059389842146174
43.009497869018190385759 4702.72581678154529072 43.009497869018190385759 332.90003700517286234
44.009497869018218807469 4708.05200412031172164 44.009497869018218807469 332.03327161637372456
46.009497869018190385759 4718.20611611360982351 46.009497869018190385759 330.35112271070869383
48.009497869018190385759 4727.74835207615160471 48.009497869018190385759 328.73250851249531479
50.009497869018190385759 4736.73451748137449613 50.009497869018190385759 327.13011782102074676
52.009497869018190385759 4745.21341713379842986 52.009497869018190385759 325.57311289860291481
54.009497869018190385759 4753.22813068406048842 54.009497869018190385759 324.06902164793160637
56.009497869018190385759 4760.81663155474234372 56.009497869018190385759 322.59510695300622274
58.009497869018218807469 4768.01287357367618824 58.009497869018218807469 321.07975777743826029
60.009497869018190385759 4774.84695639841356751 60.009497869018190385759 319.66311178796695458
62.009497869018190385759 4781.34608699808359233 62.009497869018190385759 318.27178858729405420
64.009497869018190385759 4787.53456598444972769 64.009497869018190385759 316.90435724417307028
66.009497869018190385759 4793.43442386030710622 66.009497869018190385759 315.53754006743491800
68.009497869018190385759 4799.06566656149789196 68.009497869018190385759 314.18054046368723675
70.009497869018190385759 4804.44622106288898067 70.009497869018190385759 312.88920794198548947
72.009497869018218807469 4809.59275523751966830 72.009497869018218807469 311.59996280198924978
74.009497869018190385759 4814.52026522223786742 74.009497869018190385759 310.34880055437304236
76.009497869018190385759 4819.24247174885749700 76.009497869018190385759 309.12376682586170773
78.009497869018190385759 4823.77216528541339358 78.009497869018190385759 307.91564440032738048
80.009497869018190385759 4828.12087935945510253 80.009497869018190385759 306.74143927289964040
82.009497869018218807469 4832.29927956340725359 82.009497869018218807469 305.59737547639883815
84.009497869018190385759 4836.31737637693186116 84.009497869018190385759 304.49225132812387073
86.009497869018190385759 4840.18421463086178846 86.009497869018190385759 303.39137815719294622
88.009497869018190385759 4843.90817568315378594 88.009497869018190385759 302.33494717468369117
91.009497869018218807469 4849.24353221939963987 91.009497869018218807469 300.78736438010093934
94.009497869018190385759 4854.29930153609529953 94.009497869018190385759 299.30080648615614791
97.009497869018190385759 4859.09721089242339076 97.009497869018190385759 297.86401250445641153
99.504748934509109403734 4862.90562950760613603 99.504748934509109403734 296.94240590151878223
nan nan nan nan

