Time Pressure difference Time.1 Pressure.1 difference.1
(hr) (psi) (hr) (psi)
0.000200000000006639311 0.24551979727970646 0.000200000000006639311 0.19571960285218715
0.000399999999999067768 0.49090054161218838 0.000399999999999067768 0.51230160605157571
0.000600000000005707079 0.73616343897425640 0.000600000000005707079 0.74954787836860404
0.000799999999998135536 0.98131864690470527 0.000799999999998135536 0.99107521266598431
0.001007140329434719206 1.23511779951200862 0.001007140329434719206 1.24462168946313101
0.001267914553963578328 1.55448214018968378 0.001267914553963578328 1.56606887684239582
0.001596209851982166583 1.95630970267835758 0.001596209851982166583 1.97031861220822724
0.002009509145210586212 2.46183239883378358 0.002009509145210586212 2.47858410110208371
0.002529822128138903281 3.09771611751246345 0.002529822128138903281 3.11745065216201622
0.003184857364445292660 3.89743388028353754 0.003184857364445292660 3.92020223729153638
0.004009497869020606231 4.90297644366040775 0.004009497869020606231 4.92845706797076044
0.005047658755842121536 6.16697803519929089 0.005047658755842121536 6.19417381392288302
0.006354625877804664924 7.75534986062984899 0.006354625877804664924 7.78209632404516860
0.008000000000009777068 9.75053011495652022 0.008000000000009777068 9.77270752143370380
0.010071403294347192059 12.25547536027490025 0.010071403294347192059 12.26575913569916487
0.012679145539692626699 15.39853220610925888 0.012679145539692626699 15.38442767821447710
0.015962098519750611558 19.33933660250259123 0.015962098519750611558 19.28011014563325176
0.020095091452091651263 24.27588472065612279 0.020095091452091651263 24.13780268040526522
0.025298221281346400247 30.45289480707750229 0.025298221281346400247 30.18188330824890286
0.031848573644282396344 38.17151893720847511 0.031848573644282396344 37.68191985096960650
0.040094978690191851456 47.80034560778500463 0.040094978690191851456 46.95781112724039019
0.050476587558421215363 59.78742772257532323 0.050476587558421215363 58.38309934656933109
0.063546258777947173257 74.67273361166118661 0.063546258777947173257 72.38461334887524856
0.079999999999998294697 93.09989701530038531 0.079999999999998294697 89.43566678731396280
0.100714032943542974863 115.82537092982839511 0.100714032943542974863 110.03881246566336927
0.126791455396897845276 143.72200263160547706 0.126791455396897845276 134.69266687016875039
0.159620985197506115583 177.77259118269250848 0.159620985197506115583 163.83570769306996340
0.200950914520774404082 219.04716572256032237 0.200950914520774404082 197.75859806753246062
0.252982212813464002465 268.65566630881124865 0.252982212813464002465 236.47640503998488271
0.318485736442795541734 327.66584737211240963 0.318485736442795541734 279.55498905687971956
0.400949786901819038576 396.97559708559805358 0.400949786901819038576 325.89556183025149494
0.504765875584169521062 477.13162894559985716 0.504765875584169521062 373.50376566211258478
0.635462587779443310865 568.09636965403899467 0.635462587779443310865 419.31028964055269626
0.799999999999997157829 668.98653122040627750 0.799999999999997157829 459.16611701548498559
1.007140329435330272645 777.84249031977230970 1.007140329435330272645 488.18020538617406601
1.267914553968893187630 891.52920069956360294 1.267914553968893187630 501.53969327542864676
1.596209851975103788391 1005.89068247326213168 1.596209851975103788391 495.78175454223725183
2.009509145207687197399 1116.24079773998983001 2.009509145207687197399 470.17275560174061866
2.529822128134711078928 1218.14859365596407770 2.529822128134711078928 427.55754177646934977
3.184857364427983839050 1308.30410264797819764 3.184857364427983839050 374.05825700545557311
4.009497869018190385759 1385.13986972920019980 4.009497869018190385759 317.46347387916063099
5.009497869018190385759 1447.03515603872415340 5.009497869018190385759 266.36428351866771891
6.009497869018190385759 1489.62603050719849307 6.009497869018190385759 230.52091488191055646
7.009497869018204596614 1520.96566749886164871 7.009497869018204596614 205.58503099444257600
8.009497869018190385759 1545.27328032270702352 8.009497869018190385759 188.03481192296024460
9.009497869018204596614 1564.91427590283296922 9.009497869018204596614 175.73523872252843603
10.009497869018190385759 1581.29493974824845282 10.009497869018190385759 166.96045407685352302
11.009497869018190385759 1595.29689971829520800 11.009497869018190385759 159.84285373894590521
12.009497869018190385759 1607.49780072234239015 12.009497869018190385759 154.41569926177089656
13.009497869018190385759 1618.29243567028902362 13.009497869018190385759 150.18959803929436703
14.009497869018204596614 1627.96017675153393611 14.009497869018204596614 146.83311342448573100
15.009497869018190385759 1636.70499307888962903 15.009497869018190385759 144.11679684493776676
16.009497869018190385759 1644.67994540455265451 16.009497869018190385759 141.88001493704445011
17.009497869018190385759 1652.00273235848408149 17.009497869018190385759 140.05086054065608892
18.009497869018190385759 1658.76577888489509860 18.009497869018190385759 138.44939095968078391
19.009497869018204596614 1665.04275675868620965 19.009497869018204596614 137.12481949474724274
20.009497869018190385759 1670.89364410104462877 20.009497869018190385759 135.90991568333603823
21.009497869018204596614 1676.36799309226466903 21.009497869018204596614 134.83969508476903343
22.009497869018190385759 1681.50689774037709867 22.009497869018190385759 133.88686379542167515
23.009497869018190385759 1686.34514109113047198 23.009497869018190385759 133.04520038109544089
24.009497869018190385759 1690.91239248126953498 24.009497869018190385759 132.26535683061513282
25.009497869018190385759 1695.23397728217446456 25.009497869018190385759 131.55259271368186091
26.009497869018204596614 1699.33204144385103973 26.009497869018204596614 130.91090309042124318
27.009497869018190385759 1703.22565242475980085 27.009497869018190385759 130.29956384172166395
28.009497869018190385759 1706.93175271851828256 28.009497869018190385759 129.72945330091650362
29.009497869018190385759 1710.46510036606923677 29.009497869018190385759 129.19897215836010673
30.009497869018190385759 1713.83894303489500999 30.009497869018190385759 128.69398733498405818
31.009497869018190385759 1717.06497460619880258 31.009497869018190385759 128.21599526558398452
32.009497869018190385759 1720.15372396688144363 32.009497869018190385759 127.76108084879848548
33.009497869018190385759 1723.11464407160065093 33.009497869018190385759 127.32919489597058771
34.009497869018190385759 1725.95622518774234777 34.009497869018190385759 126.91179092169350895
35.009497869018190385759 1728.68622881799910829 35.009497869018190385759 126.50905247160203260
36.009497869018190385759 1731.31162498599269384 36.009497869018190385759 126.12116578299107061
37.009497869018190385759 1733.83880468725988067 37.009497869018190385759 125.74585711502416530
38.009497869018190385759 1736.27361201454505135 38.009497869018190385759 125.38173115147017711
39.009497869018190385759 1738.62136449607464783 39.009497869018190385759 125.02489791271609931
40.009497869018190385759 1740.88697461064020899 40.009497869018190385759 124.67276892277044453
41.009497869018190385759 1743.07496598957118294 41.009497869018190385759 124.33861917312515288
42.009497869018190385759 1745.18949106128070525 42.009497869018190385759 124.00425088165535215
43.009497869018190385759 1747.23440296039802888 43.009497869018190385759 123.68452256489418062
44.009497869018218807469 1749.21327609004015358 44.009497869018218807469 123.36248756527739090
46.009497869018190385759 1752.98589956362093289 46.009497869018190385759 122.73750780813485051
48.009497869018190385759 1756.53118874365850388 48.009497869018190385759 122.13613351534775120
50.009497869018190385759 1759.86987740177028172 50.009497869018190385759 121.54078684786034614
52.009497869018190385759 1763.02009830537849666 52.009497869018190385759 120.96230265124415837
54.009497869018190385759 1765.99785711813342459 54.009497869018190385759 120.40347781629699853
56.009497869018190385759 1768.81726235346241083 56.009497869018190385759 119.85586467397587285
58.009497869018218807469 1771.49092909853197852 58.009497869018218807469 119.29285710874596305
60.009497869018190385759 1774.03004047548120070 60.009497869018190385759 118.76652138217916388
62.009497869018190385759 1776.44470486704631185 62.009497869018190385759 118.24959399653872083
64.009497869018190385759 1778.74395083805120521 64.009497869018190385759 117.74154330860335449
66.009497869018190385759 1780.93596352492545520 66.009497869018190385759 117.23372080591096278
68.009497869018190385759 1783.02817586352898616 68.009497869018190385759 116.72954589016087823
70.009497869018190385759 1785.02724837978871619 70.009497869018190385759 116.24976869381072220
72.009497869018218807469 1786.93937379731528381 72.009497869018218807469 115.77076703600357632
74.009497869018190385759 1788.77012372866533951 74.009497869018190385759 115.30591456365243630
76.009497869018190385759 1790.52459592684272138 76.009497869018190385759 114.85076979046498025
78.009497869018190385759 1792.20754251788002875 78.009497869018190385759 114.40190818400071748
80.009497869018190385759 1793.82324862851282887 80.009497869018190385759 113.96564809257607465
82.009497869018218807469 1795.37567691587560148 82.009497869018218807469 113.54058660647061174
84.009497869018190385759 1796.86854663878466454 84.009497869018190385759 113.12999262190999161
86.009497869018190385759 1798.30521828224709679 86.009497869018190385759 112.72097803069510746
88.009497869018190385759 1799.68880582686438174 88.009497869018190385759 112.32847533568224208
91.009497869018218807469 1801.67108564826571637 91.009497869018218807469 111.75349180368988300
94.009497869018190385759 1803.54948860597983185 94.009497869018190385759 111.20118125115372720
97.009497869018190385759 1805.33208717035881818 97.009497869018190385759 110.66735980959022356
99.504748934509109403734 1806.74705378431190184 99.504748934509109403734 110.32494929590433230
nan nan nan nan

