Time Pressure difference Time.1 Pressure.1 difference.1
(hr) (psi) (hr) (psi)
0.000200000000006639311 0.65999050590782105 0.000200000000006639311 0.52612083071791327
0.000399999999999067768 1.31960721863886565 0.000399999999999067768 1.37713618169118490
0.000600000000005707079 1.97890714273418777 0.000600000000005707079 2.01488633066543388
0.000799999999998135536 2.63791758303536028 0.000799999999998135536 2.66414455472584910
0.001007140329434719206 3.32016411868821271 0.001007140329434719206 3.34571186353987393
0.001267914553963578328 4.17865877006921682 0.001267914553963578328 4.20980548927464415
0.001596209851982166583 5.25882574313199136 0.001596209851982166583 5.29648359146143743
0.002009509145210586212 6.61773929584810361 0.002009509145210586212 6.66277014296254944
0.002529822128138903281 8.32708095317757113 0.002529822128138903281 8.38013005818467427
0.003184857364445292660 10.47683073581303503 0.003184857364445292660 10.53803516668538443
0.004009497869020606231 13.17986549092441884 0.004009497869020606231 13.24836086407055191
0.005047658755842121536 16.57767315902724548 0.005047658755842121536 16.65077909979947535
0.006354625877804664924 20.84743199823549631 0.006354625877804664924 20.91933011853497959
0.008000000000009777068 26.21074705478142519 0.008000000000009777068 26.27036293049805948
0.010071403294347192059 32.94437952778981327 0.010071403294347192059 32.97202371054046210
0.012679145539692626699 41.39334250659201331 0.012679145539692626699 41.35542762313247067
0.015962098519750611558 51.98675907045610955 0.015962098519750611558 51.82755032368530834
0.020095091452091651263 65.25686977450951076 0.020095091452091651263 64.88568652732669761
0.025298221281346400247 81.86151044749986738 0.025298221281346400247 81.13299479132669489
0.031848573644282396344 102.61021870239432019 0.031848573644282396344 101.29410997226743518
0.040094978690191851456 128.49381039652035952 0.040094978690191851456 126.22896347085296043
0.050476587558421215363 160.71671248814314481 0.050476587558421215363 156.94168739603213680
0.063546258777947173257 200.73043306456719392 0.063546258777947173257 194.57965554460366775
0.079999999999998294697 250.26514689197696839 0.079999999999998294697 240.41519919437280350
0.100714032943542974863 311.35430219442008593 0.100714032943542974863 295.79924842464760104
0.126791455396897845276 386.34423080292589248 0.126791455396897845276 362.07215195947060238
0.159620985197506115583 477.87682985720391571 0.159620985197506115583 440.41259729018463531
0.200950914520774404082 588.82848277284858796 0.200950914520774404082 531.60192633068902524
0.252982212813464002465 722.18285892504172807 0.252982212813464002465 635.68064134477288007
0.318485736442795541734 880.81022700367839207 0.318485736442795541734 751.48171634612083380
0.400949786901819038576 1067.12423216569231954 0.400949786901819038576 876.05145942843876128
0.504765875584169521062 1282.59451441986675491 0.504765875584169521062 1004.02876667815337441
0.635462587779443310865 1527.12007164628107603 0.635462587779443310865 1127.16291418629907639
0.799999999999997157829 1798.32650595858353881 0.799999999999997157829 1234.30078235010023491
1.007140329435330272645 2090.94608414772710603 1.007140329435330272645 1312.29458600419002323
1.267914553968893187630 2396.55137679577592280 1.267914553968893187630 1348.20670090649127815
1.596209851975103788391 2703.97054644507397825 1.596209851975103788391 1332.72858085421739816
2.009509145207687197399 3000.60661900953255099 2.009509145207687197399 1263.88811929552662150
2.529822128134711078928 3274.54859243789633183 2.529822128134711078928 1149.33264619911938098
3.184857364427983839050 3516.89882508422624596 3.184857364427983839050 1005.51931459432648808
4.009497869018190385759 3723.44378540764637364 4.009497869018190385759 853.38486368194708120
5.009497869018190385759 3889.82670758884069073 5.009497869018190385759 716.02331128916455327
6.009497869018190385759 4004.31675319392661550 6.009497869018190385759 619.67147627577992353
7.009497869018204596614 4088.56194686982189523 7.009497869018204596614 552.64043924946770403
8.009497869018190385759 4153.90410608781985502 8.009497869018190385759 505.46307069460152661
9.009497869018204596614 4206.70176539303884056 9.009497869018204596614 472.40015019310186517
10.009497869018190385759 4250.73521091647853609 10.009497869018190385759 448.81233926421975866
11.009497869018190385759 4288.37437788680654194 11.009497869018190385759 429.67926445757331066
12.009497869018190385759 4321.17205414514410222 12.009497869018190385759 415.09033733757394202
13.009497869018190385759 4350.18949656453878561 13.009497869018190385759 403.73000422088273353
14.009497869018204596614 4376.17769547107218386 14.009497869018204596614 394.70731845971920393
15.009497869018190385759 4399.68494749681121903 15.009497869018190385759 387.40549117978184768
16.009497869018190385759 4421.12270069766236702 16.009497869018190385759 381.39271811890256458
17.009497869018190385759 4440.80734495009437524 17.009497869018190385759 376.47570308047545495
18.009497869018190385759 4458.98733103634458530 18.009497869018190385759 372.17073569839612901
19.009497869018204596614 4475.86069867673995759 19.009497869018204596614 368.61010799774430780
20.009497869018190385759 4491.58867719365571247 20.009497869018190385759 365.34428181995076557
21.009497869018204596614 4506.30446956666401093 21.009497869018204596614 362.46738373634519803
22.009497869018190385759 4520.11854206142106705 22.009497869018190385759 359.90604403311652959
23.009497869018190385759 4533.12439622124202288 23.009497869018190385759 357.64353865155487711
24.009497869018190385759 4545.40178724625911855 24.009497869018190385759 355.54721344636533331
25.009497869018190385759 4557.01879316869235481 25.009497869018190385759 353.63120685406687471
26.009497869018204596614 4568.03494530499574466 26.009497869018204596614 351.90625813797981891
27.009497869018190385759 4578.50149956893073977 27.009497869018190385759 350.26289534401797710
28.009497869018190385759 4588.46399968062723929 28.009497869018190385759 348.73036090720944458
29.009497869018190385759 4597.96211725522971392 29.009497869018190385759 347.30435566637140710
30.009497869018190385759 4607.03146381922670116 30.009497869018190385759 345.94688798861812984
31.009497869018190385759 4615.70347411090006062 31.009497869018190385759 344.66198049358678190
32.009497869018190385759 4624.00645120588887949 32.009497869018190385759 343.43910885795656895
33.009497869018190385759 4631.96580592806458299 33.009497869018190385759 342.27814085594803828
34.009497869018190385759 4639.60436126738841267 34.009497869018190385759 341.15610237594216869
35.009497869018190385759 4646.94298119550239790 35.009497869018190385759 340.07348681349293429
36.009497869018190385759 4654.00040208099017036 36.009497869018190385759 339.03079479970142529
37.009497869018190385759 4660.79380378643145377 37.009497869018190385759 338.02191421089548840
38.009497869018190385759 4667.33889602554063458 38.009497869018190385759 337.04309424785031979
39.009497869018190385759 4673.64997303521067806 39.009497869018190385759 336.08387811791141075
40.009497869018190385759 4679.74024022453431826 40.009497869018190385759 335.13730764663375794
41.009497869018190385759 4685.62185772789871407 41.009497869018190385759 334.23906781114652631
42.009497869018190385759 4691.30598783591722167 42.009497869018190385759 333.34024050560230990
43.009497869018190385759 4696.80298829693401785 43.009497869018190385759 332.48076743715625980
44.009497869018218807469 4702.12246759119261696 44.009497869018218807469 331.61509369242361345
46.009497869018190385759 4712.26379103034378204 46.009497869018190385759 329.93506336220650610
48.009497869018190385759 4721.79400906346199918 48.009497869018190385759 328.31848772091785804
50.009497869018190385759 4730.76885688001311792 50.009497869018190385759 326.71811515373985912
52.009497869018190385759 4739.23707781750908907 52.009497869018190385759 325.16307119470042153
54.009497869018190385759 4747.24169727010030329 54.009497869018190385759 323.66087426550342343
56.009497869018190385759 4754.82064083490058692 56.009497869018190385759 322.18881588631478508
58.009497869018218807469 4762.00781957673189027 58.009497869018218807469 320.67537521096795672
60.009497869018190385759 4768.83329524425971613 60.009497869018190385759 319.26051341040027864
62.009497869018190385759 4775.32424054090824939 62.009497869018190385759 317.87094250594986988
64.009497869018190385759 4781.50492547313479008 64.009497869018190385759 316.50523336855070511
66.009497869018190385759 4787.39735279751130292 66.009497869018190385759 315.14013762402510110
68.009497869018190385759 4793.02150325348611659 68.009497869018190385759 313.78484708778842105
70.009497869018190385759 4798.39528123787295044 70.009497869018190385759 312.49514092946407118
72.009497869018218807469 4803.53533363142742019 72.009497869018218807469 311.20751952390111228
74.009497869018190385759 4808.45663768417489337 74.009497869018190385759 309.95793304737753715
76.009497869018190385759 4813.17289684741172096 76.009497869018190385759 308.73444218250421045
78.009497869018190385759 4817.69688548026806529 78.009497869018190385759 307.52784132173752596
80.009497869018190385759 4822.04012258444345207 80.009497869018190385759 306.35511504207738653
82.009497869018218807469 4826.21326031962416891 82.009497869018218807469 305.21249213197012295
84.009497869018190385759 4830.22629655781747715 84.009497869018190385759 304.10875982771062809
86.009497869018190385759 4834.08826473837962112 86.009497869018190385759 303.00927314691938363
88.009497869018190385759 4837.80753566340172256 88.009497869018190385759 301.95417268202038485
91.009497869018218807469 4843.13617260703358625 91.009497869018218807469 300.40853898415616641
94.009497869018190385759 4848.18557445607530099 94.009497869018190385759 298.92385332937254816
97.009497869018190385759 4852.97744110540497786 97.009497869018190385759 297.48886891188152504
99.504748934509109403734 4856.78106322359053593 99.504748934509109403734 296.56842302254960941
nan nan nan nan

