Time Pressure difference Time.1 Pressure.1 difference.1
(hr) (psi) (hr) (psi)
0.000200000000006639311 0.88137445870918352 0.000200000000006639311 0.70260020142530921
0.000399999999999067768 1.76224974090612707 0.000399999999999067768 1.83907593494447008
0.000600000000005707079 2.64270197245334737 0.000600000000005707079 2.69074984133000550
0.000799999999998135536 3.52276761719350162 0.000799999999998135536 3.55779203462127924
0.001007140329434719206 4.43386355824819312 0.001007140329434719206 4.46798091234391759
0.001267914553963578328 5.58032741173177893 0.001267914553963578328 5.62192183246134647
0.001596209851982166583 7.02282025469959503 0.001596209851982166583 7.07310986552038123
0.002009509145210586212 8.83756105208466813 0.002009509145210586212 8.89769682395629324
0.002529822128138903281 11.12027582523965741 0.002529822128138903281 11.19111945979516953
0.003184857364445292660 13.99112704820429265 0.003184857364445292660 14.07286159081944632
0.004009497869020606231 17.60085441978431220 0.004009497869020606231 17.69232554230859122
0.005047658755842121536 22.13840589585101171 0.005047658755842121536 22.23603413201468726
0.006354625877804664924 27.84039153358308738 0.006354625877804664924 27.93640680394520359
0.008000000000009777068 35.00275048047103610 0.008000000000009777068 35.08236361084167498
0.010071403294347192059 43.99507934417328414 0.010071403294347192059 44.03199635493361086
0.012679145539692626699 55.27812069921934324 0.012679145539692626699 55.22748783467501710
0.015962098519750611558 69.42494054932285508 0.015962098519750611558 69.21232760754445223
0.020095091452091651263 87.14631159042316710 0.020095091452091651263 86.65062046965822162
0.025298221281346400247 109.32073084981381328 0.025298221281346400247 108.34784550317147023
0.031848573644282396344 137.02928323560601598 0.031848573644282396344 135.27170549890445272
0.040094978690191851456 171.59513897845531005 0.040094978690191851456 168.57058299575447791
0.050476587558421215363 214.62673206171956508 0.050476587558421215363 209.58543121361668682
0.063546258777947173257 268.06245727033626736 0.063546258777947173257 259.84849334392851006
0.079999999999998294697 334.21285064136645815 0.079999999999998294697 321.05888517886603495
0.100714032943542974863 415.79345021928224924 0.100714032943542974863 395.02068610555085115
0.126791455396897845276 515.93762978600068436 0.126791455396897845276 483.52384479833460773
0.159620985197506115583 638.17347139820799384 0.159620985197506115583 588.14242185410535058
0.200950914520774404082 786.34219830573351828 0.200950914520774404082 709.91984865598954002
0.252982212813464002465 964.42830718993593564 0.252982212813464002465 848.91021334692879918
0.318485736442795541734 1176.26485548158302663 0.318485736442795541734 1003.55502851266328435
0.400949786901819038576 1425.07510953779114971 0.400949786901819038576 1169.90983043469941549
0.504765875584169521062 1712.82167814708554943 0.504765875584169521062 1340.81521300399049323
0.635462587779443310865 2039.36967953771954853 0.635462587779443310865 1505.25287026896717180
0.799999999999997157829 2401.54825953359386403 0.799999999999997157829 1648.32853531999512597
1.007140329435330272645 2792.32270253775914171 1.007140329435330272645 1752.48419492867242298
1.267914553968893187630 3200.43872386724706303 1.267914553968893187630 1800.44249213111493191
1.596209851975103788391 3610.97706013282913773 1.596209851975103788391 1779.77246800077728039
2.009509145207687197399 4007.11527053101463025 2.009509145207687197399 1687.84050231268929565
2.529822128134711078928 4372.94698536157920898 2.529822128134711078928 1534.85910759756279731
3.184857364427983839050 4696.58998204816634825 3.184857364427983839050 1342.80574294500843280
4.009497869018190385759 4972.41736285838305776 4.009497869018190385759 1139.64006385773245711
5.009497869018190385759 5194.61094998307999049 5.009497869018190385759 956.20263134328524757
6.009497869018190385759 5347.50497053262097324 6.009497869018190385759 827.53101308455359231
7.009497869018204596614 5460.00895552981273795 7.009497869018204596614 738.01541634954116944
8.009497869018190385759 5547.26916563303984731 8.009497869018190385759 675.01310449632160271
9.009497869018204596614 5617.77701078339032392 9.009497869018204596614 630.85972138019531030
10.009497869018190385759 5676.58081760472941824 10.009497869018190385759 599.35973175385709055
11.009497869018190385759 5726.84548068364256324 11.009497869018190385759 573.80875291370750801
12.009497869018190385759 5770.64464733885051828 12.009497869018190385759 554.32618819734022964
13.009497869018190385759 5809.39555720283351548 13.009497869018190385759 539.15520109699230034
14.009497869018204596614 5844.10110908432034194 14.009497869018204596614 527.10599022552673887
15.009497869018190385759 5875.49351752726761333 15.009497869018190385759 517.35487409759014099
16.009497869018190385759 5904.12224468956355850 16.009497869018190385759 509.32520616383072820
17.009497869018190385759 5930.40980870384555601 17.009497869018190385759 502.75885190696538984
18.009497869018190385759 5954.68799945458886214 18.009497869018190385759 497.00984754678631816
19.009497869018204596614 5977.22128612694450567 19.009497869018204596614 492.25486049131302480
20.009497869018190385759 5998.22498001019084768 20.009497869018190385759 487.89356172424697888
21.009497869018204596614 6017.87696503290953842 21.009497869018204596614 484.05165116871319242
22.009497869018190385759 6036.32476171884536598 22.009497869018190385759 480.63114833678491777
23.009497869018190385759 6053.69323530680412659 23.009497869018190385759 477.60971933416971069
24.009497869018190385759 6070.08889368699692568 24.009497869018190385759 474.81021316481832173
25.009497869018190385759 6085.60265065024668729 25.009497869018190385759 472.25151079250542807
26.009497869018204596614 6100.31400640351876064 26.009497869018204596614 469.94795380595286360
27.009497869018190385759 6114.29140989091774827 27.009497869018190385759 467.75334951994324229
28.009497869018190385759 6127.59568179291818524 28.009497869018190385759 465.70674930735793851
29.009497869018190385759 6140.27980097514318913 29.009497869018190385759 463.80241191763849429
30.009497869018190385759 6152.39132431848793203 30.009497869018190385759 461.98960199236643120
31.009497869018190385759 6163.97223087445672718 31.009497869018190385759 460.27369147882518519
32.009497869018190385759 6175.06031756246648001 32.009497869018190385759 458.64062582670368329
33.009497869018190385759 6185.68951888754236279 33.009497869018190385759 457.09022845706050475
34.009497869018190385759 6195.89031347057334642 34.009497869018190385759 455.59181893584207046
35.009497869018190385759 6205.69056379071480478 35.009497869018190385759 454.14605616076801198
36.009497869018190385759 6215.11529105141016771 36.009497869018190385759 452.75360869216115134
37.009497869018190385759 6224.18743784341768333 37.009497869018190385759 451.40631418579857836
38.009497869018190385759 6232.92798346916424634 38.009497869018190385759 450.09916369290476723
39.009497869018190385759 6241.35601695370496600 39.009497869018190385759 448.81819284598759623
40.009497869018190385759 6249.48917326328137278 40.009497869018190385759 447.55410945496237218
41.009497869018190385759 6257.34369146764765901 41.009497869018190385759 446.35456848928652107
42.009497869018190385759 6264.93447808100427210 42.009497869018190385759 445.15424299550170417
43.009497869018190385759 6272.27536520359808492 43.009497869018190385759 444.00647252956935063
44.009497869018218807469 6279.37918433678896690 44.009497869018218807469 442.85042146314827960
46.009497869018190385759 6292.92226317923541501 46.009497869018190385759 440.60685006377900663
48.009497869018190385759 6305.64925043909897795 48.009497869018190385759 438.44801828051953407
50.009497869018190385759 6317.63457684228706057 50.009497869018190385759 436.31082465045466279
52.009497869018190385759 6328.94333595049374708 52.009497869018190385759 434.23416443277136523
54.009497869018190385759 6339.63298538340040977 54.009497869018190385759 432.22807799138485052
56.009497869018190385759 6349.75417231293704390 56.009497869018190385759 430.26223962623879515
58.009497869018218807469 6359.35218276388332015 58.009497869018218807469 428.24113789207450509
60.009497869018190385759 6368.46716224926967698 60.009497869018190385759 426.35168184314483142
62.009497869018190385759 6377.13539814983778342 62.009497869018190385759 424.49600014350676247
64.009497869018190385759 6385.38930148303825263 64.009497869018190385759 422.67218428410490105
66.009497869018190385759 6393.25825550134231889 66.009497869018190385759 420.84918757104986753
68.009497869018190385759 6400.76894318466838740 68.009497869018190385759 419.03928507688260652
70.009497869018190385759 6407.94527469218974147 70.009497869018190385759 417.31696626015445872
72.009497869018218807469 6414.80948085205727693 72.009497869018218807469 415.59743149534847362
74.009497869018190385759 6421.38156280900511774 74.009497869018190385759 413.92868990816248242
76.009497869018190385759 6427.67982063229283085 76.009497869018190385759 412.29479731560144273
78.009497869018190385759 6433.72131364893175487 78.009497869018190385759 410.68346022663308759
80.009497869018190385759 6439.52142473761068686 80.009497869018190385759 409.11736044080697638
82.009497869018218807469 6445.09437916580372985 82.009497869018218807469 407.59146175000802259
84.009497869018190385759 6450.45352844228000322 84.009497869018190385759 406.11749893763618502
86.009497869018190385759 6455.61093613864250074 86.009497869018190385759 404.64920587968180143
88.009497869018190385759 6460.57778091745603888 88.009497869018190385759 403.24018773046606157
91.009497869018218807469 6467.69382949665578053 91.009497869018218807469 401.17609430544945326
94.009497869018190385759 6474.43697774146676238 94.009497869018190385759 399.19339303380274941
97.009497869018190385759 6480.83620445223732531 97.009497869018190385759 397.27706453680019649
99.504748934509109403734 6485.91569477147822909 99.504748934509109403734 396.04786882834810058
nan nan nan nan

