Time Pressure difference Time.1 Pressure.1 difference.1
(hr) (psi) (hr) (psi)
0.000200000000006639311 0.83892866324726811 0.000200000000006639311 0.66876393110171073
0.000399999999999067768 1.67738218964435903 0.000399999999999067768 1.75050853864402844
0.000600000000005707079 2.51543303893576420 0.000600000000005707079 2.56116698778153529
0.000799999999998135536 3.35311591891506078 0.000799999999998135536 3.38645360802478690
0.001007140329434719206 4.22033471833255813 0.001007140329434719206 4.25280902704690167
0.001267914553963578328 5.31158643156339405 0.001267914553963578328 5.35117772154961013
0.001596209851982166583 6.68461078067723502 0.001596209851982166583 6.73247851222336546
0.002009509145210586212 8.41195612889645439 0.002009509145210586212 8.46919584376576218
0.002529822128138903281 10.58473846255106210 0.002529822128138903281 10.65217036399766748
0.003184857364445292660 13.31733339432476626 0.003184857364445292660 13.39513171250803047
0.004009497869020606231 16.75322120410065097 0.004009497869020606231 16.84028720174415739
0.005047658755842121536 21.07225037112164401 0.005047658755842121536 21.16517696418395289
0.006354625877804664924 26.49963613394877626 0.006354625877804664924 26.59102743944925606
0.008000000000009777068 33.31706561313956882 0.008000000000009777068 33.39284468340736822
0.010071403294347192059 41.87633614629525169 0.010071403294347192059 41.91147528401612732
0.012679145539692626699 52.61600157206147799 0.012679145539692626699 52.56780711742437973
0.015962098519750611558 66.08152981465291020 0.015962098519750611558 65.87915602304514096
0.020095091452091651263 82.94946372346227292 0.020095091452091651263 82.47764441304579464
0.025298221281346400247 104.05599310350550013 0.025298221281346400247 103.12996059225386603
0.031848573644282396344 130.43013928374966781 0.031848573644282396344 128.75720410094018575
0.040094978690191851456 163.33135041575351920 0.040094978690191851456 160.45245293646883056
0.050476587558421215363 204.29060048934212546 0.050476587558421215363 199.49208183505726311
0.063546258777947173257 255.15293383238804381 0.063546258777947173257 247.33454323954663323
0.079999999999998294697 318.11761420821284219 0.079999999999998294697 305.59712583597450930
0.100714032943542974863 395.76940304158313211 0.100714032943542974863 375.99702700131751953
0.126791455396897845276 491.09077509375703130 0.126791455396897845276 460.23799391569525596
0.159620985197506115583 607.43990478696287028 0.159620985197506115583 559.81828255801531213
0.200950914520774404082 748.47302728251122517 0.200950914520774404082 675.73107407482279996
0.252982212813464002465 917.98275131959917417 0.252982212813464002465 808.02785179764327950
0.318485736442795541734 1119.61753949521789764 0.318485736442795541734 955.22518294689746199
0.400949786901819038576 1356.44543004163688238 0.400949786901819038576 1113.56856381319835236
0.504765875584169521062 1630.33451517682919985 0.504765875584169521062 1276.24337555054057702
0.635462587779443310865 1941.15640885176708252 0.635462587779443310865 1432.76193883958330844
0.799999999999997157829 2285.89296091582855297 0.799999999999997157829 1568.94727441223335518
1.007140329435330272645 2657.84823810959505863 1.007140329435330272645 1668.08693908224904590
1.267914553968893187630 3046.30994679715240636 1.267914553968893187630 1713.73562990383743454
1.596209851975103788391 3437.07731502728211126 1.596209851975103788391 1694.06104602906839318
2.009509145207687197399 3814.13804787088110970 2.009509145207687197399 1606.55639880188005009
2.529822128134711078928 4162.35180476342975453 2.529822128134711078928 1460.94238003620716881
3.184857364427983839050 4470.40859481071856862 3.184857364427983839050 1278.13804427626860161
4.009497869018190385759 4732.95250402384317567 4.009497869018190385759 1084.75654803455563524
5.009497869018190385759 4944.44555012553792039 5.009497869018190385759 910.15321283666810359
6.009497869018190385759 5089.97640254663110682 6.009497869018190385759 787.67824474903682130
7.009497869018204596614 5197.06234860628046590 7.009497869018204596614 702.47359743185791103
8.009497869018190385759 5280.12022564504604816 8.009497869018190385759 642.50539124862348217
9.009497869018204596614 5347.23250884764638613 9.009497869018204596614 600.47837502477511862
10.009497869018190385759 5403.20440429232075985 10.009497869018190385759 570.49538206599436307
11.009497869018190385759 5451.04838954590286448 11.009497869018190385759 546.17490362324565467
12.009497869018190385759 5492.73824789193622564 12.009497869018190385759 527.63059273174587815
13.009497869018190385759 5529.62296662932658364 13.009497869018190385759 513.19021974104646233
14.009497869018204596614 5562.65714632388517202 14.009497869018204596614 501.72128248095458503
15.009497869018190385759 5592.53773906278183858 15.009497869018190385759 492.43976684643138242
16.009497869018190385759 5619.78774565352250647 16.009497869018190385759 484.79679680183323853
17.009497869018190385759 5644.80933633000586269 17.009497869018190385759 478.54666923722481897
18.009497869018190385759 5667.91832242703094380 18.009497869018190385759 473.07452910968891047
19.009497869018204596614 5689.36643665340943699 19.009497869018204596614 468.54853576510242874
20.009497869018190385759 5709.35862119950161286 20.009497869018190385759 464.39727121628038731
21.009497869018204596614 5728.06419334577185509 21.009497869018204596614 460.74038184897347037
22.009497869018190385759 5745.62356922813614801 22.009497869018190385759 457.48460578232214857
23.009497869018190385759 5762.15560074528730183 23.009497869018190385759 454.60868469201420794
24.009497869018190385759 5777.76166651226958493 24.009497869018190385759 451.94399893308485616
25.009497869018190385759 5792.52830203536268527 25.009497869018190385759 449.50852018776720342
26.009497869018204596614 5806.53117889966688381 26.009497869018204596614 447.31589937337150786
27.009497869018190385759 5819.83544964121301746 27.009497869018190385759 445.22698424561167485
28.009497869018190385759 5832.49900589920798666 28.009497869018190385759 443.27894551635199605
29.009497869018190385759 5844.57227514914484345 29.009497869018190385759 441.46631842585418326
30.009497869018190385759 5856.10052399720098038 30.009497869018190385759 439.74081096157260617
31.009497869018190385759 5867.12370984084191150 31.009497869018190385759 438.10753636511412878
32.009497869018190385759 5877.67780935124301323 32.009497869018190385759 436.55311693419952235
33.009497869018190385759 5887.79512279380833206 33.009497869018190385759 435.07738459368931672
34.009497869018190385759 5897.50466098048946151 34.009497869018190385759 433.65113643751539030
35.009497869018190385759 5906.83294457133160904 35.009497869018190385759 432.27499963177922382
36.009497869018190385759 5915.80378978264525358 36.009497869018190385759 430.94961053984746968
37.009497869018190385759 5924.43903432121351216 37.009497869018190385759 429.66719990489610836
38.009497869018190385759 5932.75864715478473954 38.009497869018190385759 428.42300000231165313
39.009497869018190385759 5940.78079800692648860 39.009497869018190385759 427.20371896955197144
40.009497869018190385759 5948.52227256788319210 40.009497869018190385759 426.00051211577152799
41.009497869018190385759 5955.99852785589064297 41.009497869018190385759 424.85873941189873904
42.009497869018190385759 5963.22375250769800914 42.009497869018190385759 423.71621996172399349
43.009497869018190385759 5970.21111248841134511 43.009497869018190385759 422.62372456072318982
44.009497869018218807469 5976.97282135173099960 44.009497869018218807469 421.52334734169357944
46.009497869018190385759 5989.86368393264365295 46.009497869018190385759 419.38782329016925132
48.009497869018190385759 6001.97775679188998765 48.009497869018190385759 417.33295791006963782
50.009497869018190385759 6013.38588617282857740 50.009497869018190385759 415.29868861912967759
52.009497869018190385759 6024.15003081973372900 52.009497869018190385759 413.32203753374272992
54.009497869018190385759 6034.32488127145188628 54.009497869018190385759 411.41256148755041977
56.009497869018190385759 6043.95864560098380025 56.009497869018190385759 409.54139522497519010
58.009497869018218807469 6053.09442891972958023 58.009497869018218807469 407.61762700208794286
60.009497869018190385759 6061.77044338740688545 60.009497869018190385759 405.81916458724271024
62.009497869018190385759 6070.02122883383981389 62.009497869018190385759 404.05284999495262355
64.009497869018190385759 6077.87763540595096856 64.009497869018190385759 402.31686662736331073
66.009497869018190385759 6085.36763129872815625 66.009497869018190385759 400.58166295714659100
68.009497869018190385759 6092.51661447605874855 68.009497869018190385759 398.85892290604124355
70.009497869018190385759 6099.34734361636219546 70.009497869018190385759 397.21954862156343324
72.009497869018218807469 6105.88097894133534282 72.009497869018218807469 395.58282431285289249
74.009497869018190385759 6112.13655836777888908 74.009497869018190385759 393.99444705139541156
76.009497869018190385759 6118.13150065850004466 76.009497869018190385759 392.43924050436851303
78.009497869018190385759 6123.88204358651910297 78.009497869018190385759 390.90550321855158700
80.009497869018190385759 6129.40282921200378041 80.009497869018190385759 389.41482466887009650
82.009497869018218807469 6134.70739773289005825 82.009497869018218807469 387.96241118414366156
84.009497869018190385759 6139.80845766744005232 84.009497869018190385759 386.55943241656029841
86.009497869018190385759 6144.71749162205105677 86.009497869018190385759 385.16185035573107598
88.009497869018190385759 6149.44513991009989695 88.009497869018190385759 383.82068860463630244
91.009497869018218807469 6156.21848926593884244 91.009497869018218807469 381.85599911226910308
94.009497869018190385759 6162.63689666043228499 94.009497869018190385759 379.96878203784052630
97.009497869018190385759 6168.72794531431100040 97.009497869018190385759 378.14474131548121250
99.504748934509109403734 6173.56281428673355549 99.504748934509109403734 376.97474200092057117
nan nan nan nan

