Time Pressure difference Time.1 Pressure.1 difference.1
(hr) (psi) (hr) (psi)
0.000200000000006639311 0.11485332889694742 0.000200000000006639311 0.09155696675797229
0.000399999999999067768 0.22964160929654914 0.000399999999999067768 0.23965295469531336
0.000600000000005707079 0.34437476128287248 0.000600000000005707079 0.35063595666056729
0.000799999999998135536 0.45905753651813336 0.000799999999998135536 0.46362162490815539
0.001007140329434719206 0.57778391977171928 0.001007140329434719206 0.58222980727427820
0.001267914553963578328 0.72718147574975034 0.001267914553963578328 0.73260171187881562
0.001596209851982166583 0.91515504735462161 0.001596209851982166583 0.92170836774486553
0.002009509145210586212 1.15163685097987178 0.002009509145210586212 1.15947324051555078
0.002529822128138903281 1.44910109903972883 0.002529822128138903281 1.45833284745206182
0.003184857364445292660 1.82320635755636684 0.003184857364445292660 1.83385731778383732
0.004009497869020606231 2.29359576008520794 0.004009497869020606231 2.30551550976259279
0.005047658755842121536 2.88489141985593900 0.005047658755842121536 2.89761351295375524
0.006354625877804664924 3.62792637548108221 0.006354625877804664924 3.64043828040079109
0.008000000000009777068 4.56126493513220233 0.008000000000009777068 4.57163945070457967
0.010071403294347192059 5.73306982955232591 0.010071403294347192059 5.73788054483554166
0.012679145539692626699 7.20338116760365388 0.012679145539692626699 7.19678311726643294
0.015962098519750611558 9.04687610557748378 0.015962098519750611558 9.01917016982165620
0.020095091452091651263 11.35617658118828821 0.020095091452091651263 11.29158227083364885
0.025298221281346400247 14.24576096059896635 0.025298221281346400247 14.11898270012999390
0.031848573644282396344 17.85650716384667902 0.031848573644282396344 17.62747437096205161
0.040094978690191851456 22.36083964025196735 0.040094978690191851456 21.96670486630228325
0.050476587558421215363 27.96835601937421956 0.050476587558421215363 27.31141596551379180
0.063546258777947173257 34.93165165562454888 0.063546258777947173257 33.86127675303317375
0.079999999999998294697 43.55181623088628129 0.079999999999998294697 41.83770175135364866
0.100714032943542974863 54.18271589259769172 0.100714032943542974863 51.47578345851371040
0.126791455396897845276 67.23266563783577965 0.126791455396897845276 63.00877297655351583
0.159620985197506115583 83.16141553631040040 0.159620985197506115583 76.64178868353781127
0.200950914520774404082 102.46952159224856871 0.200950914520774404082 92.51080180786264862
0.252982212813464002465 125.67621000208797000 0.252982212813464002465 110.62286066277258101
0.318485736442795541734 153.28097266898816997 0.318485736442795541734 130.77487623677762940
0.400949786901819038576 185.70383863665264812 0.400949786901819038576 152.45283909347358531
0.504765875584169521062 223.20055862539925329 0.504765875584169521062 174.72379546227637093
0.635462587779443310865 265.75355597375380512 0.635462587779443310865 196.15193210303820592
0.799999999999997157829 312.94963155395271315 0.799999999999997157829 214.79635304453194067
1.007140329435330272645 363.87208021738501884 1.007140329435330272645 228.36904523149837587
1.267914553968893187630 417.05433795437210165 1.267914553968893187630 234.61856837969205003
1.596209851975103788391 470.55225146206839781 1.596209851975103788391 231.92502415874150756
2.009509145207687197399 522.17366131565631804 2.009509145207687197399 219.94522126454307909
2.529822128134711078928 569.84578279499328346 2.529822128134711078928 200.00996869543311618
3.184857364427983839050 612.02022428956274780 3.184857364427983839050 174.98318463306057424
4.009497869018190385759 647.96373566993099757 4.009497869018190385759 148.50833693330227447
5.009497869018190385759 676.91814079099628998 5.009497869018190385759 124.60430890025813255
6.009497869018190385759 696.84200749150306820 6.009497869018190385759 107.83690255492766141
7.009497869018204596614 711.50258344014548584 7.009497869018204596614 96.17198060079007860
8.009497869018190385759 722.87360232045284647 8.009497869018190385759 87.96204761141869710
9.009497869018204596614 732.06159347318964592 9.009497869018204596614 82.20834896172516437
10.009497869018190385759 739.72441249240102934 10.009497869018190385759 78.10353444951113033
11.009497869018190385759 746.27448190211771362 11.009497869018190385759 74.77394513889673533
12.009497869018190385759 751.98202203282460232 12.009497869018190385759 72.23514067160807883
13.009497869018190385759 757.03171566949106364 13.009497869018190385759 70.25818484550040921
14.009497869018204596614 761.55425217529386828 14.009497869018204596614 68.68803272060686993
15.009497869018190385759 765.64504760978559261 15.009497869018190385759 67.41734903254715050
16.009497869018190385759 769.37570327399419057 16.009497869018190385759 66.37099003834620703
17.009497869018190385759 772.80127818803657647 17.009497869018190385759 65.51531781223911821
18.009497869018190385759 775.96500842751026994 18.009497869018190385759 64.76615577096930565
19.009497869018204596614 778.90135739897857547 19.009497869018204596614 64.14652572974617328
20.009497869018190385759 781.63838266421748813 20.009497869018190385759 63.57819784508600947
21.009497869018204596614 784.19926456519488056 21.009497869018204596614 63.07755227694279654
22.009497869018190385759 786.60322673956625295 22.009497869018190385759 62.63182102972268694
23.009497869018190385759 788.86654057822386221 23.009497869018190385759 62.23809373759718966
24.009497869018190385759 791.00308529632263799 24.009497869018190385759 61.87328556821994141
25.009497869018190385759 793.02470801674598988 25.009497869018190385759 61.53985693046813310
26.009497869018204596614 794.94176853983537967 26.009497869018204596614 61.23967669992586593
27.009497869018190385759 796.76318655802322155 27.009497869018190385759 60.95369427172065002
28.009497869018190385759 798.49688771239163998 28.009497869018190385759 60.68699849331009233
29.009497869018190385759 800.14977576446619878 29.009497869018190385759 60.43884121306336965
30.009497869018190385759 801.72804792818817532 30.009497869018190385759 60.20261102450101021
31.009497869018190385759 803.23717456154383854 31.009497869018190385759 59.97900795474775748
32.009497869018190385759 804.68208104213442766 32.009497869018190385759 59.76620053265826726
33.009497869018190385759 806.06718943010469047 33.009497869018190385759 59.56416574794555885
34.009497869018190385759 807.39647144375749122 34.009497869018190385759 59.36890558370746618
35.009497869018190385759 808.67355788774193570 35.009497869018190385759 59.18050590196976657
36.009497869018190385759 809.90170931548118460 36.009497869018190385759 58.99905382390768693
37.009497869018190385759 811.08391541302330552 37.009497869018190385759 58.82348570126553966
38.009497869018190385759 812.22291002714325714 38.009497869018190385759 58.65314880984028889
39.009497869018190385759 813.32118067951967078 39.009497869018190385759 58.48622343035532367
40.009497869018190385759 814.38102541107923571 40.009497869018190385759 58.32149868251634217
41.009497869018190385759 815.40456036122304795 41.009497869018190385759 58.16518456234328482
42.009497869018190385759 816.39372802188722744 42.009497869018190385759 58.00876820904554876
43.009497869018190385759 817.35033087638953475 43.009497869018190385759 57.85920038628948703
44.009497869018218807469 818.27604101839165196 44.009497869018218807469 57.70855350511281046
46.009497869018190385759 820.04086149077852497 46.009497869018190385759 57.41619009329697576
48.009497869018190385759 821.69933575127072345 48.009497869018190385759 57.13486923768810755
50.009497869018190385759 823.26116298794670456 50.009497869018190385759 56.85636808476179738
52.009497869018190385759 824.73482564793971505 52.009497869018190385759 56.58575513854811589
54.009497869018190385759 826.12781112644881887 54.009497869018190385759 56.32433877508130138
56.009497869018190385759 827.44671933822985466 56.009497869018190385759 56.06816720341921467
58.009497869018218807469 828.69745157829629534 58.009497869018218807469 55.80479417290489152
60.009497869018190385759 829.88523927327594265 60.009497869018190385759 55.55857610420584791
62.009497869018190385759 831.01481109034705241 62.009497869018190385759 55.31675922549946733
64.009497869018190385759 832.09039056152903413 64.009497869018190385759 55.07909483588902333
66.009497869018190385759 833.11580666589736666 66.009497869018190385759 54.84153719056174481
68.009497869018190385759 834.09453650565080807 68.009497869018190385759 54.60568587404136309
70.009497869018190385759 835.02969585224013827 70.009497869018190385759 54.38124772795213602
72.009497869018218807469 835.92418164077798792 72.009497869018218807469 54.15717237616438950
74.009497869018190385759 836.78060025273157407 74.009497869018190385759 53.93971596536961499
76.009497869018190385759 837.60133639967557428 76.009497869018190385759 53.72680078333615938
78.009497869018190385759 838.38861311005916832 78.009497869018190385759 53.51682484539694684
80.009497869018190385759 839.14443495164334763 80.009497869018190385759 53.31274385347626321
82.009497869018218807469 839.87065564200281642 82.009497869018218807469 53.11390153116251867
84.009497869018190385759 840.56901503780420626 84.009497869018190385759 52.92182705702908407
86.009497869018190385759 841.24108516254273127 86.009497869018190385759 52.73049141774890103
88.009497869018190385759 841.88832272578736138 88.009497869018190385759 52.54687998753948364
91.009497869018218807469 842.81562650664636749 91.009497869018218807469 52.27790464037018836
94.009497869018190385759 843.69433704279731501 94.009497869018190385759 52.01953563613292886
97.009497869018190385759 844.52823060850676029 97.009497869018190385759 51.76981577533373269
99.504748934509109403734 845.19014719401707225 99.504748934509109403734 51.60963729774507414
nan nan nan nan

