Time Pressure difference Time.1 Pressure.1 difference.1
(hr) (psi) (hr) (psi)
0.000200000000006639311 0.48521370106464018 0.000200000000006639311 0.38679501173839015
0.000399999999999067768 0.97015259579629098 0.000399999999999067768 1.01244690280701244
0.000600000000005707079 1.45485859295590325 0.000600000000005707079 1.48130987487761412
0.000799999999998135536 1.93935176659472286 0.000799999999998135536 1.95863338638735174
0.001007140329434719206 2.44092771903559669 0.001007140329434719206 2.45970998290510279
0.001267914553963578328 3.07207826349351043 0.001267914553963578328 3.09497679728514141
0.001596209851982166583 3.86619849715756825 0.001596209851982166583 3.89388390141490337
0.002009509145210586212 4.86524843566134191 0.002009509145210586212 4.89835434217801602
0.002529822128138903281 6.12192710681276697 0.002529822128138903281 6.16092789901849347
0.003184857364445292660 7.70238627866204251 0.003184857364445292660 7.74738272657954496
0.004009497869020606231 9.68961107340345151 0.004009497869020606231 9.73996769704051957
0.005047658755842121536 12.18762099837690194 0.005047658755842121536 12.24136723226115464
0.006354625877804664924 15.32667447032950037 0.006354625877804664924 15.37953273531638487
0.008000000000009777068 19.26969171871068198 0.008000000000009777068 19.31352028812152355
0.010071403294347192059 24.22014283064497420 0.010071403294347192059 24.24046635970377395
0.012679145539692626699 30.43167551241253932 0.012679145539692626699 30.40380114033572667
0.015962098519750611558 38.21977369240342171 0.015962098519750611558 38.10272615221757775
0.020095091452091651263 47.97573149878819976 0.020095091452091651263 47.70284394127548921
0.025298221281346400247 60.18317855093621205 0.025298221281346400247 59.64758633460714776
0.031848573644282396344 75.43727301827979659 0.031848573644282396344 74.46969245123823100
0.040094978690191851456 94.46644572657172034 0.040094978690191851456 92.80136910908863968
0.050476587558421215363 118.15617071953020911 0.050476587558421215363 115.38083701372855217
0.063546258777947173257 147.57357184948634199 0.063546258777947173257 143.05162570303141933
0.079999999999998294697 183.99064393193262390 0.079999999999998294697 176.74913131187810222
0.100714032943542974863 228.90234322742358586 0.100714032943542974863 217.46653446603980342
0.126791455396897845276 284.03365265839317999 0.126791455396897845276 266.18923656036736247
0.159620985197506115583 351.32684969325333668 0.159620985197506115583 323.78378842393146897
0.200950914520774404082 432.89660208899209692 0.200950914520774404082 390.82461923176759910
0.252982212813464002465 530.93645240012540398 0.252982212813464002465 467.34150555359718737
0.318485736442795541734 647.55657294217462550 0.318485736442795541734 552.47646989885049607
0.400949786901819038576 784.53143424035147291 0.400949786901819038576 644.05800863402248524
0.504765875584169521062 942.94149042469393862 0.504765875584169521062 738.14473010512404016
0.635462587779443310865 1122.71248646882941102 0.635462587779443310865 828.67084359471925836
0.799999999999997157829 1322.09880576778573413 0.799999999999997157829 907.43676684755155293
1.007140329435330272645 1537.22770120822792705 1.007140329435330272645 964.77647369538806288
1.267914553968893187630 1761.90347121303580025 1.267914553968893187630 991.17844467652503226
1.596209851975103788391 1987.91277248105689068 1.596209851975103788391 979.79919626482819695
2.009509145207687197399 2205.99452570309858856 2.009509145207687197399 929.18886954513493492
2.529822128134711078928 2407.39196644551566351 2.529822128134711078928 844.96965035824280221
3.184857364427983839050 2585.56370116532661996 3.184857364427983839050 739.24055537010372063
4.009497869018190385759 2737.41201373601234081 4.009497869018190385759 627.39391617474791474
5.009497869018190385759 2859.73388464602066961 5.009497869018190385759 526.40805861485864625
6.009497869018190385759 2943.90500266337858193 6.009497869018190385759 455.57184195306393804
7.009497869018204596614 3005.84062424351350273 7.009497869018204596614 406.29177311783058713
8.009497869018190385759 3053.87905907843423847 8.009497869018190385759 371.60778085113838642
9.009497869018204596614 3092.69499271644599503 9.009497869018204596614 347.30048872960708195
10.009497869018190385759 3125.06762668891133217 10.009497869018190385759 329.95913466713756179
11.009497869018190385759 3152.73929673141037711 11.009497869018190385759 315.89282620273041857
12.009497869018190385759 3176.85158583432439627 12.009497869018190385759 305.16729718512686986
13.009497869018190385759 3198.18471185009639157 13.009497869018190385759 296.81537510816474423
14.009497869018204596614 3217.29078998693012181 14.009497869018204596614 290.18205127618699635
15.009497869018190385759 3234.57291852539856336 15.009497869018190385759 284.81387308677528836
16.009497869018190385759 3250.33358701984479922 16.009497869018190385759 280.39338545185398743
17.009497869018190385759 3264.80539988134296436 17.009497869018190385759 276.77848032272027012
18.009497869018190385759 3278.17101386404692676 18.009497869018190385759 273.61354213387761547
19.009497869018204596614 3290.57602437394598383 19.009497869018204596614 270.99582971334791637
20.009497869018190385759 3302.13896444375950523 20.009497869018190385759 268.59485031655901821
21.009497869018204596614 3312.95776261962782883 21.009497869018204596614 266.47980418447571083
22.009497869018190385759 3323.11363180555872532 22.009497869018190385759 264.59675116179943188
23.009497869018190385759 3332.67531273264103220 23.009497869018190385759 262.93339600738522677
24.009497869018190385759 3341.70144005620340977 24.009497869018190385759 261.39221366863938556
25.009497869018190385759 3350.24206357799221223 25.009497869018190385759 259.98359848161538821
26.009497869018204596614 3358.34094970089881826 26.009497869018204596614 258.71544576852738828
27.009497869018190385759 3366.03578089367783832 27.009497869018190385759 257.50727362618215466
28.009497869018190385759 3373.36004011829209048 28.009497869018190385759 256.38058059130275979
29.009497869018190385759 3380.34289326582438662 29.009497869018190385759 255.33220599431842857
30.009497869018190385759 3387.01052131980941340 30.009497869018190385759 254.33421903829051303
31.009497869018190385759 3393.38603456072542031 31.009497869018190385759 253.38957708418800507
32.009497869018190385759 3399.49024092437957734 32.009497869018190385759 252.49054282999833276
33.009497869018190385759 3405.34182201268868084 33.009497869018190385759 251.63701906559609256
34.009497869018190385759 3410.95755689645375242 34.009497869018190385759 250.81211561812648370
35.009497869018190385759 3416.35278440980800951 35.009497869018190385759 250.01619522353894354
36.009497869018190385759 3421.54127920960581832 36.009497869018190385759 249.24962593723321902
37.009497869018190385759 3426.53567163617799451 37.009497869018190385759 248.50791423070876363
38.009497869018190385759 3431.34751120162673033 38.009497869018190385759 247.78830258070206582
39.009497869018190385759 3435.98730678376796277 39.009497869018190385759 247.08310333258808100
40.009497869018190385759 3440.46476677289228974 40.009497869018190385759 246.38720095584801584
41.009497869018190385759 3444.78883109125445117 41.009497869018190385759 245.72683043366765787
42.009497869018190385759 3448.96770606347990906 42.009497869018190385759 245.06602801357647081
43.009497869018190385759 3453.00900652851532868 43.009497869018190385759 244.43415815367225719
44.009497869018218807469 3456.91979647624884819 44.009497869018218807469 243.79772966290408931
46.009497869018190385759 3464.37552354437639224 46.009497869018190385759 242.56260017675461427
48.009497869018190385759 3471.38197639848431209 48.009497869018190385759 241.37412148965336200
50.009497869018190385759 3477.98013059400682323 50.009497869018190385759 240.19755502475453568
52.009497869018190385759 3484.20582139673069832 52.009497869018190385759 239.05431337517063639
54.009497869018190385759 3490.09068033854828172 54.009497869018190385759 237.94992395559711440
56.009497869018190385759 3495.66258966802888608 56.009497869018190385759 236.86769188111162521
58.009497869018218807469 3500.94648021845523544 58.009497869018218807469 235.75503625219965897
60.009497869018190385759 3505.96445287188316797 60.009497869018190385759 234.71485412139139726
62.009497869018190385759 3510.73648453385794710 62.009497869018190385759 233.69326542366803778
64.009497869018190385759 3515.28041809689466390 64.009497869018190385759 232.68921948784998222
66.009497869018190385759 3519.61242961027619458 66.009497869018190385759 231.68562450795286622
68.009497869018190385759 3523.74720857097418047 68.009497869018190385759 230.68923814902979075
70.009497869018190385759 3527.69791798446340181 70.009497869018190385759 229.74106829997171531
72.009497869018218807469 3531.47679635198255710 72.009497869018218807469 228.79443112539010485
74.009497869018190385759 3535.09485469088758691 74.009497869018190385759 227.87575657833684772
76.009497869018190385759 3538.56216754355682497 76.009497869018190385759 226.97626707742742269
78.009497869018190385759 3541.88812639974275953 78.009497869018190385759 226.08919481787259542
80.009497869018190385759 3545.08119983194228553 80.009497869018190385759 225.22702656939608801
82.009497869018218807469 3548.14921912527233872 82.009497869018218807469 224.38698980194021715
84.009497869018190385759 3551.09953454376727677 84.009497869018190385759 223.57554474092719943
86.009497869018190385759 3553.93878731711856744 86.009497869018190385759 222.76722098947541895
88.009497869018190385759 3556.67313151546431982 88.009497869018190385759 221.99152922272116939
91.009497869018218807469 3560.59065400996269091 91.009497869018218807469 220.85520583576678177
94.009497869018190385759 3564.30288765181740018 94.009497869018190385759 219.76369040482245509
97.009497869018190385759 3567.82578583159056507 97.009497869018190385759 218.70871447115627006
99.504748934509109403734 3570.62214358052142416 99.504748934509109403734 218.03201843902448331
nan nan nan nan

