Time Pressure difference Time.1 Pressure.1 difference.1
(hr) (psi) (hr) (psi)
0.000200000000006639311 0.11069197640068122 0.000200000000006639311 0.08823968535369794
0.000399999999999067768 0.22132126113363071 0.000399999999999067768 0.23096987662664262
0.000600000000005707079 0.33189741485958002 0.000600000000005707079 0.33793175533228587
0.000799999999998135536 0.44242501707907056 0.000799999999998135536 0.44682373994771496
0.001007140329434719206 0.55684971977999032 0.001007140329434719206 0.56113452440202183
0.001267914553963578328 0.70083432083128117 0.001267914553963578328 0.70605817159335127
0.001596209851982166583 0.88199725578380195 0.001596209851982166583 0.88831313702947190
0.002009509145210586212 1.10991087811828226 0.002009509145210586212 1.11746334049687146
0.002529822128138903281 1.39659743603104269 0.002529822128138903281 1.40549470080524808
0.003184857364445292660 1.75714815619562881 0.003184857364445292660 1.76741321206703161
0.004009497869020606231 2.21049446442994668 0.004009497869020606231 2.22198233911902099
0.005047658755842121536 2.78036636841188356 0.005047658755842121536 2.79262751610760507
0.006354625877804664924 3.49647976767379687 0.006354625877804664924 3.50853834270511022
0.008000000000009777068 4.39600171284480457 0.008000000000009777068 4.40600034017180597
0.010071403294347192059 5.52534990819173455 0.010071403294347192059 5.52998632219657260
0.012679145539692626699 6.94238909631366674 0.012679145539692626699 6.93603010577127232
0.015962098519750611558 8.71909073943337098 0.015962098519750611558 8.69238864192956662
0.020095091452091651263 10.94472090795682817 0.020095091452091651263 10.88246697116576378
0.025298221281346400247 13.72961020115697650 0.025298221281346400247 13.60742535592238589
0.031848573644282396344 17.20953226660585500 0.031848573644282396344 16.98879776331849811
0.040094978690191851456 21.55066429096747527 0.040094978690191851456 21.17080976245075163
0.050476587558421215363 26.95500978678819592 0.050476587558421215363 26.32187190879227501
0.063546258777947173257 33.66601210288452961 0.063546258777947173257 32.63441889966239984
0.079999999999998294697 41.97385187469475198 0.079999999999998294697 40.32184299224663704
0.100714032943542974863 52.21957401243111008 0.100714032943542974863 49.61071884045161795
0.126791455396897845276 64.79669949153738173 0.126791455396897845276 60.72584641943200978
0.159620985197506115583 80.14832077050205328 0.159620985197506115583 73.86491228196034342
0.200950914520774404082 98.75685776644245095 0.200950914520774404082 89.15896116265022897
0.252982212813464002465 121.12272413244711800 0.252982212813464002465 106.61478600107791692
0.318485736442795541734 147.72731423895234570 0.318485736442795541734 126.03665608327121106
0.400949786901819038576 178.97543868604930140 0.400949786901819038576 146.92918550313032711
0.504765875584169521062 215.11358186360942568 0.504765875584169521062 168.39322316291853099
0.635462587779443310865 256.12480394571923625 0.635462587779443310865 189.04497804133390559
0.799999999999997157829 301.61087678750521945 0.799999999999997157829 207.01387648494744553
1.007140329435330272645 350.68830919501601784 1.007140329435330272645 220.09480446224117145
1.267914553968893187630 401.94367353573545643 1.267914553968893187630 226.11789561231191215
1.596209851975103788391 453.50325684387752290 1.596209851975103788391 223.52194357327985585
2.009509145207687197399 503.25432576074121016 2.009509145207687197399 211.97619150858139392
2.529822128134711078928 549.19919646184143858 2.529822128134711078928 192.76323069922179343
3.184857364427983839050 589.84557848196993746 3.184857364427983839050 168.64321417534100078
4.009497869018190385759 624.48678872536822837 4.009497869018190385759 143.12760008789274480
5.009497869018190385759 652.39212119711964988 5.009497869018190385759 120.08966002706037557
6.009497869018190385759 671.59410866934706519 6.009497869018190385759 103.92976840438679176
7.009497869018204596614 685.72350432999519398 7.009497869018204596614 92.68748855003681797
8.009497869018190385759 696.68252977261022352 8.009497869018190385759 84.77501690086003805
9.009497869018204596614 705.53762269517551431 9.009497869018204596614 79.22978559354672257
10.009497869018190385759 712.92280334412555476 10.009497869018190385759 75.27369624481869437
11.009497869018190385759 719.23555139841778328 11.009497869018190385759 72.06474422806714131
12.009497869018190385759 724.73629659685275328 12.009497869018190385759 69.61792542988314381
13.009497869018190385759 729.60303031914725125 13.009497869018190385759 67.71259843805474077
14.009497869018204596614 733.96170680662385166 14.009497869018204596614 66.19933588290372484
15.009497869018190385759 737.90428501522819715 15.009497869018190385759 64.97469145890413245
16.009497869018190385759 741.49977199595093680 16.009497869018190385759 63.96624402246411023
17.009497869018190385759 744.80123187687581776 17.009497869018190385759 63.14157441324494613
18.009497869018190385759 747.85033420912213842 18.009497869018190385759 62.41955592419507326
19.009497869018204596614 750.68029372510250141 19.009497869018204596614 61.82237624678435139
20.009497869018190385759 753.31815140826756760 20.009497869018190385759 61.27463995214811376
21.009497869018204596614 755.78624773312276375 21.009497869018204596614 60.79213371618399719
22.009497869018190385759 758.10310982871249053 22.009497869018190385759 60.36255215183417988
23.009497869018190385759 760.28441954278082449 23.009497869018190385759 59.98309034130743100
24.009497869018190385759 762.34355322036890357 24.009497869018190385759 59.63149985922647289
25.009497869018190385759 764.29192874077693887 25.009497869018190385759 59.31015196921928379
26.009497869018204596614 766.13953054926162167 26.009497869018204596614 59.02084783398652235
27.009497869018190385759 767.89495516099339056 27.009497869018190385759 58.74522708796265391
28.009497869018190385759 769.56584105614558666 28.009497869018190385759 58.48819420007421854
29.009497869018190385759 771.15884185995662392 29.009497869018190385759 58.24902812563354360
30.009497869018190385759 772.67993024963061544 30.009497869018190385759 58.02135700187415779
31.009497869018190385759 774.13437838177776484 31.009497869018190385759 57.80585549261922296
32.009497869018190385759 775.52693317828902764 32.009497869018190385759 57.60075848437354296
33.009497869018190385759 776.86185647973854884 33.009497869018190385759 57.40604380055622613
34.009497869018190385759 778.14297610159235319 34.009497869018190385759 57.21785827994994378
35.009497869018190385759 779.37379129760631713 35.009497869018190385759 57.03628467363752463
36.009497869018190385759 780.55744448521022605 36.009497869018190385759 56.86140694622987013
37.009497869018190385759 781.69681702849334215 37.009497869018190385759 56.69219998745157341
38.009497869018190385759 782.79454372181191957 38.009497869018190385759 56.52803472252723083
39.009497869018190385759 783.85302195924725766 39.009497869018190385759 56.36715736403810695
40.009497869018190385759 784.87446651937341358 40.009497869018190385759 56.20840090416430002
41.009497869018190385759 785.86091686987447247 41.009497869018190385759 56.05775033906997606
42.009497869018190385759 786.81424512254352521 42.009497869018190385759 55.90700124494969714
43.009497869018190385759 787.73618845333203353 43.009497869018190385759 55.76285254620653831
44.009497869018218807469 788.62835837279783391 44.009497869018218807469 55.61766388536235439
46.009497869018190385759 790.32923607444604386 46.009497869018190385759 55.33589335078621474
48.009497869018190385759 791.92762068781883045 48.009497869018190385759 55.06476527980085223
50.009497869018190385759 793.43285998113708501 50.009497869018190385759 54.79635474835738052
52.009497869018190385759 794.85312906649255638 52.009497869018190385759 54.53554661903549317
54.009497869018190385759 796.19564405665005324 54.009497869018190385759 54.28360186294067802
56.009497869018190385759 797.46676573901856955 56.009497869018190385759 54.03671186996200504
58.009497869018218807469 798.67218159357548757 58.009497869018218807469 53.78288134055326708
60.009497869018190385759 799.81693350250509411 60.009497869018190385759 53.54558421637230481
62.009497869018190385759 800.90557880446499439 62.009497869018190385759 53.31252881877847472
64.009497869018190385759 801.94218800495184496 64.009497869018190385759 53.08347545777710508
66.009497869018190385759 802.93045135191550798 66.009497869018190385759 52.85452497351240453
68.009497869018190385759 803.87371996559102172 68.009497869018190385759 52.62721899454710694
70.009497869018190385759 804.77499672715896395 70.009497869018190385759 52.41091266534517246
72.009497869018218807469 805.63707361031504206 72.009497869018218807469 52.19495598572364514
74.009497869018190385759 806.46246256241522588 74.009497869018190385759 51.98537843039245843
76.009497869018190385759 807.25346189244100970 76.009497869018190385759 51.78017756654862325
78.009497869018190385759 808.01221408433229954 78.009497869018190385759 51.57780945244778081
80.009497869018190385759 808.74065107658373108 80.009497869018190385759 51.38112269936480203
82.009497869018218807469 809.44055942308966678 82.009497869018218807469 51.18948480901894982
84.009497869018190385759 810.11361594223171778 84.009497869018190385759 51.00436955496280689
86.009497869018190385759 810.76133570013178087 86.009497869018190385759 50.81996636638118758
88.009497869018190385759 811.38512262702704447 88.009497869018190385759 50.64300752422284546
91.009497869018218807469 812.27882844481132452 91.009497869018218807469 50.38377766064662922
94.009497869018190385759 813.12570164269607176 94.009497869018190385759 50.13476985221507221
97.009497869018190385759 813.92938167341606004 97.009497869018190385759 49.89409781245932152
99.504748934509109403734 814.56731577394396027 99.504748934509109403734 49.73972290289923848
nan nan nan nan

