Time Pressure difference Time.1 Pressure.1 difference.1
(hr) (psi) (hr) (psi)
0.000200000000006639311 0.80813465477489821 0.000200000000006639311 0.64421604871008042
0.000399999999999067768 1.61581161323876232 0.000399999999999067768 1.68625376093586454
0.000600000000005707079 2.42310067540339968 0.000600000000005707079 2.46715589795225254
0.000799999999998135536 3.23003527506599619 0.000799999999998135536 3.26214925931752786
0.001007140329434719206 4.06542163839376336 0.001007140329434719206 4.09670393379220421
0.001267914553963578328 5.11661748516672166 0.001267914553963578328 5.15475552343717425
0.001596209851982166583 6.43924312305316970 0.001596209851982166583 6.48535380492945279
0.002009509145210586212 8.10318392972069113 0.002009509145210586212 8.15832258362753748
0.002529822128138903281 10.19621135628678488 0.002529822128138903281 10.26116807881124693
0.003184857364445292660 12.82850270425530503 0.003184857364445292660 12.90344533020366669
0.004009497869020606231 16.13827161625171769 0.004009497869020606231 16.22214173898172263
0.005047658755842121536 20.29876499043562887 0.005047658755842121536 20.38828058752243777
0.006354625877804664924 25.52693123617486037 0.006354625877804664924 25.61496790050122030
0.008000000000009777068 32.09411776821281848 0.008000000000009777068 32.16711526546483668
0.010071403294347192059 40.33920872822687187 0.010071403294347192059 40.37305803648776248
0.012679145539692626699 50.68466024451556251 0.012679145539692626699 50.63823483236019030
0.015962098519750611558 63.65591810518649396 0.015962098519750611558 63.46097271664367412
0.020095091452091651263 79.90469174154947041 0.020095091452091651263 79.45019119550343589
0.025298221281346400247 100.23647748363475785 0.025298221281346400247 99.34443624511756354
0.031848573644282396344 125.64252504416757006 0.031848573644282396344 124.03099720437792541
0.040094978690191851456 157.33605283104824935 0.040094978690191851456 154.56282916796749305
0.050476587558421215363 196.79183836820556053 0.050476587558421215363 192.16945581531803100
0.063546258777947173257 245.78720114211188275 0.063546258777947173257 238.25579512460296883
0.079999999999998294697 306.44067797239551965 0.079999999999998294697 294.37977101858257356
0.100714032943542974863 381.24215312835042369 0.100714032943542974863 362.19554882765805814
0.126791455396897845276 473.06462561114886967 0.126791455396897845276 443.34433739299612398
0.159620985197506115583 585.14300351998110727 0.159620985197506115583 539.26939718634207566
0.200950914520774404082 720.99931497154602766 0.200950914520774404082 650.92745330025104522
0.252982212813464002465 884.28695588425671303 0.252982212813464002465 778.36809930110268851
0.318485736442795541734 1078.52046711295292880 0.318485736442795541734 920.16235381094986678
0.400949786901819038576 1306.65527040717188356 0.400949786901819038576 1072.69352724465829851
0.504765875584169521062 1570.49088713958462904 0.504765875584169521062 1229.39714053529246485
0.635462587779443310865 1869.90364384431109102 0.635462587779443310865 1380.17047878297171337
0.799999999999997157829 2201.98617564411642888 0.799999999999997157829 1511.35694787130819350
1.007140329435330272645 2560.28833254406390552 1.007140329435330272645 1606.85755738974580709
1.267914553968893187630 2934.49103009924101571 1.267914553968893187630 1650.83065142522445967
1.596209851975103788391 3310.91475485266937540 1.596209851975103788391 1631.87824969665211938
2.009509145207687197399 3674.13496476450927730 2.009509145207687197399 1547.58557860776318194
2.529822128134711078928 4009.56706589810573860 2.529822128134711078928 1407.31651886424310760
3.184857364427983839050 4306.31621583453215862 3.184857364427983839050 1231.22226288914362158
4.009497869018190385759 4559.22309663407941116 4.009497869018190385759 1044.93909537852528047
5.009497869018190385759 4762.95300513085112470 5.009497869018190385759 876.74481117500477012
6.009497869018190385759 4903.14195126267622982 6.009497869018190385759 758.76545203503440007
7.009497869018204596614 5006.29716319116869272 7.009497869018204596614 676.68835625628389607
8.009497869018190385759 5086.30628879101277562 8.009497869018190385759 618.92136399048945350
9.009497869018204596614 5150.95512509034142568 9.009497869018204596614 578.43700610025462083
10.009497869018190385759 5204.87249659508233890 10.009497869018190385759 549.55457935127037672
11.009497869018190385759 5250.96030381852415303 11.009497869018190385759 526.12681688310669870
12.009497869018190385759 5291.11987966574452003 12.009497869018190385759 508.26319994298143001
13.009497869018190385759 5326.65069503678114415 13.009497869018190385759 494.35288032594843344
14.009497869018204596614 5358.47231059572732192 14.009497869018204596614 483.30492588195130566
15.009497869018190385759 5387.25609586305654375 15.009497869018190385759 474.36410080147311419
16.009497869018190385759 5413.50585419600247405 16.009497869018190385759 467.00167628430563127
17.009497869018190385759 5437.60899362741747609 17.009497869018190385759 460.98096808466800667
18.009497869018190385759 5459.86973321095956635 18.009497869018190385759 455.70969024355946431
19.009497869018204596614 5480.53056546672632976 19.009497869018204596614 451.34982959118497092
20.009497869018190385759 5499.78890990547188267 20.009497869018190385759 447.35094280853996906
21.009497869018204596614 5517.80786878843719023 21.009497869018204596614 443.82828449935840354
22.009497869018190385759 5534.72270408781787410 22.009497869018190385759 440.69201608594721620
23.009497869018190385759 5550.64790508300939109 23.009497869018190385759 437.92165955947007205
24.009497869018190385759 5565.68112915021174558 24.009497869018190385759 435.35478468653309392
25.009497869018190385759 5579.90573539319120755 25.009497869018190385759 433.00870347452575970
26.009497869018204596614 5593.39461776942152937 26.009497869018204596614 430.89656576542046196
27.009497869018190385759 5606.21053730319272290 27.009497869018190385759 428.88432708580251074
28.009497869018190385759 5618.40926064298764686 28.009497869018190385759 427.00779374640654851
29.009497869018190385759 5630.03936425577376212 29.009497869018190385759 425.26170157887344203
30.009497869018190385759 5641.14445317587433237 30.009497869018190385759 423.59953119413393097
31.009497869018190385759 5651.76301811057328450 31.009497869018190385759 422.02620814536288663
32.009497869018190385759 5661.92971515878707578 32.009497869018190385759 420.52884577689263779
33.009497869018190385759 5671.67565896109954338 33.009497869018190385759 419.10728218300823755
34.009497869018190385759 5681.02879544846746285 34.009497869018190385759 417.73338638970977854
35.009497869018190385759 5690.01467180432882742 35.009497869018190385759 416.40776254212062213
36.009497869018190385759 5698.65623003863947815 36.009497869018190385759 415.13102364503157560
37.009497869018190385759 5706.97450627569287462 37.009497869018190385759 413.89568562267277230
38.009497869018190385759 5714.98873649533379648 38.009497869018190385759 412.69715575619505898
39.009497869018190385759 5722.71642347690976749 39.009497869018190385759 411.52263007880452506
40.009497869018190385759 5730.17373676926035841 40.009497869018190385759 410.36358855596643025
41.009497869018190385759 5737.37556601991036587 41.009497869018190385759 409.26372615967630963
42.009497869018190385759 5744.33557905255474907 42.009497869018190385759 408.16314442741469293
43.009497869018190385759 5751.06645855778515397 43.009497869018190385759 407.11075054410935081
44.009497869018218807469 5757.57996977433595021 44.009497869018218807469 406.05076415554015057
46.009497869018190385759 5769.99765585178283800 46.009497869018190385759 403.99362739558955582
48.009497869018190385759 5781.66706532234729821 48.009497869018190385759 402.01418862170396551
50.009497869018190385759 5792.65644392243757466 50.009497869018190385759 400.05458992973700560
52.009497869018190385759 5803.02547611702539143 52.009497869018190385759 398.15049448934939846
54.009497869018190385759 5812.82684495494049770 54.009497869018190385759 396.31110833770975432
56.009497869018190385759 5822.10698896682060877 56.009497869018190385759 394.50862575739171234
58.009497869018218807469 5830.90743103279601200 58.009497869018218807469 392.65547204268591486
60.009497869018190385759 5839.26498068370256078 60.009497869018190385759 390.92302461727445007
62.009497869018190385759 5847.21290991831210704 62.009497869018190385759 389.22154498521723553
64.009497869018190385759 5854.78093648728008702 64.009497869018190385759 387.54928322933506024
66.009497869018190385759 5861.99600197526342527 66.009497869018190385759 385.87777255098154683
68.009497869018190385759 5868.88257207961578388 68.009497869018190385759 384.21826799778375516
70.009497869018190385759 5875.46257009076180111 70.009497869018190385759 382.63906915827192279
72.009497869018218807469 5881.75637951590852026 72.009497869018218807469 381.06242302359140695
74.009497869018190385759 5887.78233945943702565 74.009497869018190385759 379.53234929256450414
76.009497869018190385759 5893.55722930496358458 76.009497869018190385759 378.03422870014071577
78.009497869018190385759 5899.09669079614104703 78.009497869018190385759 376.55678931072776550
80.009497869018190385759 5904.41482853656270890 80.009497869018190385759 375.12082812844528235
82.009497869018218807469 5909.52468571293320565 82.009497869018218807469 373.72172744028119951
84.009497869018190385759 5914.43850436020238703 84.009497869018190385759 372.37024690126986570
86.009497869018190385759 5919.16734560020995559 86.009497869018190385759 371.02396497560999933
88.009497869018190385759 5923.72145917927264236 88.009497869018190385759 369.73203237609305916
91.009497869018218807469 5930.24618360835938802 91.009497869018218807469 367.83945946231483504
94.009497869018190385759 5936.42899469968324411 94.009497869018190385759 366.02151523684835865
97.009497869018190385759 5942.29646319463881809 97.009497869018190385759 364.26442839021052578
99.504748934509109403734 5946.95386177819273144 99.504748934509109403734 363.13737547906140435
nan nan nan nan

