Time Pressure difference Time.1 Pressure.1 difference.1
(hr) (psi) (hr) (psi)
0.000200000000006639311 0.73822393283762588 0.000200000000006639311 0.58848572111827124
0.000399999999999067768 1.47602976410173259 0.000399999999999067768 1.54037804938219547
0.000600000000005707079 2.21348125549208641 0.000600000000005707079 2.25372531563712464
0.000799999999998135536 2.95060894848974131 0.000799999999998135536 2.97994479198212892
0.001007140329434719206 3.71372707853271722 0.001007140329434719206 3.74230318153829566
0.001267914553963578328 4.67398528253643786 0.001267914553963578328 4.70882404664137244
0.001596209851982166583 5.88219222466340064 0.001596209851982166583 5.92431392891083863
0.002009509145210586212 7.40218758564598733 0.002009509145210586212 7.45255626331372234
0.002529822128138903281 9.31414981774086570 0.002529822128138903281 9.37348721514477390
0.003184857364445292660 11.71872492139490696 0.003184857364445292660 11.78718435416133126
0.004009497869020606231 14.74216984924333040 0.004009497869020606231 14.81878447216970862
0.005047658755842121536 18.54274412617549217 0.005047658755842121536 18.62451584050710807
0.006354625877804664924 23.31862822501246058 0.006354625877804664924 23.39904894721377815
0.008000000000009777068 29.31769563378452048 0.008000000000009777068 29.38437820851422444
0.010071403294347192059 36.84951404936893482 0.010071403294347192059 36.88043509615307869
0.012679145539692626699 46.29999344684377860 0.012679145539692626699 46.25758423924149554
0.015962098519750611558 58.14912395396541456 0.015962098519750611558 57.97104304805658614
0.020095091452091651263 72.99223643126096306 0.020095091452091651263 72.57705416108295537
0.025298221281346400247 91.56514472500930424 0.025298221281346400247 90.75027286242973901
0.031848573644282396344 114.77334677052175493 0.031848573644282396344 113.30123019596622669
0.040094978690191851456 143.72510696306881073 0.040094978690191851456 141.19179142326177612
0.050476587558421215363 179.76762166076036920 0.050476587558421215363 175.54511566239659714
0.063546258777947173257 224.52445665607956471 0.063546258777947173257 217.64458318797409220
0.079999999999998294697 279.93087678837775911 0.079999999999998294697 268.91334386558469305
0.100714032943542974863 348.26136954155185776 0.100714032943542974863 330.86246324421489362
0.126791455396897845276 432.14039435333580741 0.126791455396897845276 404.99117123335486212
0.159620985197506115583 534.52301145440083019 0.159620985197506115583 492.61787363984080912
0.200950914520774404082 658.62656269800334030 0.200950914520774404082 594.61653046068238382
0.252982212813464002465 807.78839327429011519 0.252982212813464002465 711.03244498463243417
0.318485736442795541734 985.21900548835139944 0.318485736442795541734 840.56025523204175443
0.400949786901819038576 1193.61815123703559038 0.400949786901819038576 979.89614692689178810
0.504765875584169521062 1434.62967754151532063 0.504765875584169521062 1123.04352590608073115
0.635462587779443310865 1708.14060977333065239 0.635462587779443310865 1260.77365054633969521
0.799999999999997157829 2011.49509556779753439 0.799999999999997157829 1380.61134167028876618
1.007140329435330272645 2338.80097936826450677 1.007140329435330272645 1467.85031246622497747
1.267914553968893187630 2680.63186786614505763 1.267914553968893187630 1508.01934893323800679
1.596209851975103788391 3024.49164526706272227 1.596209851975103788391 1490.70649586089643890
2.009509145207687197399 3356.29012744193596518 2.009509145207687197399 1413.70587870760687110
2.529822128134711078928 3662.70441550115310747 2.529822128134711078928 1285.57132052789256704
3.184857364427983839050 3933.78216626697167158 3.184857364427983839050 1124.71075919945474197
4.009497869018190385759 4164.81038796542543423 4.009497869018190385759 954.54271637564568209
5.009497869018190385759 4350.91587595372311625 5.009497869018190385759 800.89871010528236184
6.009497869018190385759 4478.97725105045719829 6.009497869018190385759 693.12559830594796040
7.009497869018204596614 4573.20863414064479002 7.009497869018204596614 618.14888980362900384
8.009497869018190385759 4646.29626998725780140 8.009497869018190385759 565.37924805310422016
9.009497869018204596614 4705.35241601970483316 9.009497869018204596614 528.39714151485668481
10.009497869018190385759 4754.60546290405545733 10.009497869018190385759 502.01329751243747523
11.009497869018190385759 4796.70627135636550520 11.009497869018190385759 480.61224158116959870
12.009497869018190385759 4833.39169234141627385 12.009497869018190385759 464.29398388200263526
13.009497869018190385759 4865.84878115100491414 13.009497869018190385759 451.58702868086135140
14.009497869018204596614 4894.91754840207067900 14.009497869018204596614 441.49481900853839988
15.009497869018190385759 4921.21128427449184528 15.009497869018190385759 433.32745356427045635
16.009497869018190385759 4945.19020872487544693 16.009497869018190385759 426.60194321748622315
17.009497869018190385759 4967.20821559991691174 17.009497869018190385759 421.10207898156591000
18.009497869018190385759 4987.54320634204032103 18.009497869018190385759 416.28681281775209300
19.009497869018204596614 5006.41669574560819456 19.009497869018204596614 412.30411827742648256
20.009497869018190385759 5024.00902480551394547 20.009497869018190385759 408.65117020718327012
21.009497869018204596614 5040.46918600962271739 21.009497869018204596614 405.43325267861058592
22.009497869018190385759 5055.92073998547311930 22.009497869018190385759 402.56829893742042259
23.009497869018190385759 5070.46827168756863102 23.009497869018190385759 400.03760250180221192
24.009497869018190385759 5084.20099027419018967 24.009497869018190385759 397.69278477544270345
25.009497869018190385759 5097.19504355691151432 25.009497869018190385759 395.54966012554513100
26.009497869018204596614 5109.51701952778239502 26.009497869018204596614 393.62024081763945560
27.009497869018190385759 5121.22424983309065283 27.009497869018190385759 391.78207839866826134
28.009497869018190385759 5132.36767681805304164 28.009497869018190385759 390.06788162004386322
29.009497869018190385759 5142.99167466001108551 29.009497869018190385759 388.47284171005230746
30.009497869018190385759 5153.13607617610796297 30.009497869018190385759 386.95446361400286150
31.009497869018190385759 5162.83604229050251888 31.009497869018190385759 385.51724678160337589
32.009497869018190385759 5172.12323104618280922 32.009497869018190385759 384.14941936570926373
33.009497869018190385759 5181.02606539494809113 33.009497869018190385759 382.85083346686747063
34.009497869018190385759 5189.57007370009341685 34.009497869018190385759 381.59579168658353865
35.009497869018190385759 5197.77859309005179966 35.009497869018190385759 380.38484590613904857
36.009497869018190385759 5205.67258089008555544 36.009497869018190385759 379.21855610004433856
37.009497869018190385759 5213.27125341559167282 37.009497869018190385759 378.09008563059808239
38.009497869018190385759 5220.59218256576878048 38.009497869018190385759 376.99523908933576877
39.009497869018190385759 5227.65135697633286327 39.009497869018190385759 375.92232016467517042
40.009497869018190385759 5234.46354738860281941 40.009497869018190385759 374.86354587965212204
41.009497869018190385759 5241.04235536525266070 41.009497869018190385759 373.85883120868476226
42.009497869018190385759 5247.40026634357946023 42.009497869018190385759 372.85345943060434593
43.009497869018190385759 5253.54886585041731450 43.009497869018190385759 371.89210683071570429
44.009497869018218807469 5259.49890132835844270 44.009497869018218807469 370.92381854373235228
46.009497869018190385759 5270.84234885739533638 46.009497869018190385759 369.04464212140885593
48.009497869018190385759 5281.50225225635676907 48.009497869018190385759 367.23644212919816709
50.009497869018190385759 5291.54095340803542058 50.009497869018190385759 365.44636587814284212
52.009497869018190385759 5301.01297354871439893 52.009497869018190385759 363.70699136153751851
54.009497869018190385759 5309.96643818232041667 54.009497869018190385759 362.02672821374721934
56.009497869018190385759 5318.44376850007211033 56.009497869018190385759 360.38017615531049387
58.009497869018218807469 5326.48289528948498628 58.009497869018218807469 358.68733645917853892
60.009497869018190385759 5334.11744373475266912 60.009497869018190385759 357.10476090167094299
62.009497869018190385759 5341.37780751549234992 62.009497869018190385759 355.55047415230455954
64.009497869018190385759 5348.29113353678440035 64.009497869018190385759 354.02287767705479382
66.009497869018190385759 5354.88203270036956383 66.009497869018190385759 352.49596730455266425
68.009497869018190385759 5361.17285420661028184 68.009497869018190385759 350.98002442228033715
70.009497869018190385759 5367.18362478939798166 70.009497869018190385759 349.53744010647494633
72.009497869018218807469 5372.93296460413148452 72.009497869018218807469 348.09718766418700397
74.009497869018190385759 5378.43762626212173927 74.009497869018190385759 346.69947870494820563
76.009497869018190385759 5383.71293758342289948 76.009497869018190385759 345.33095865810997793
78.009497869018190385759 5388.77318716393074283 78.009497869018190385759 343.98133070918180465
80.009497869018190385759 5393.63125943556315178 80.009497869018190385759 342.66959273937277430
82.009497869018218807469 5398.29906923519229167 82.009497869018218807469 341.39152650826923718
84.009497869018190385759 5402.78779955458321638 84.009497869018190385759 340.15696086655651698
86.009497869018190385759 5407.10755463170517032 86.009497869018190385759 338.92714411263244756
88.009497869018190385759 5411.26769752009658987 88.009497869018190385759 337.74697499237339571
91.009497869018218807469 5417.22797616953084798 91.009497869018218807469 336.01812620295908118
94.009497869018190385759 5422.87591997797971999 94.009497869018190385759 334.35745006702831006
97.009497869018190385759 5428.23580108511214348 97.009497869018190385759 332.75236661392045789
99.504748934509109403734 5432.49029392096417723 99.504748934509109403734 331.72281364565134254
nan nan nan nan

