Time Pressure difference Time.1 Pressure.1 difference.1
(hr) (psi) (hr) (psi)
0.000200000000006639311 0.89552305719648861 0.000200000000006639311 0.71387895819984193
0.000399999999999067768 1.79053892466004982 0.000399999999999067768 1.86859840037795077
0.000600000000005707079 2.68512495029254206 0.000600000000005707079 2.73394412584616253
0.000799999999998135536 3.57931818328631479 0.000799999999998135536 3.61490484348677654
0.001007140329434719206 4.50503983822007203 0.001007140329434719206 4.53970487410958956
0.001267914553963578328 5.66990773845457507 0.001267914553963578328 5.71216986943192406
0.001596209851982166583 7.13555674604038259 0.001596209851982166583 7.18665364995272071
0.002009509145210586212 8.97942935981407153 0.002009509145210586212 9.04053048401980242
0.002529822128138903281 11.29878827946918740 0.002529822128138903281 11.37076915839433688
0.003184857364445292660 14.21572493283080085 0.003184857364445292660 14.29877155025658730
0.004009497869020606231 17.88339882501220046 0.004009497869020606231 17.97633832249673702
0.005047658755842121536 22.49379107076080331 0.005047658755842121536 22.59298652129159990
0.006354625877804664924 28.28731000012785657 0.006354625877804664924 28.38486659211051588
0.008000000000009777068 35.56464543624818475 0.008000000000009777068 35.64553658665310820
0.010071403294347192059 44.70132707679929496 0.010071403294347192059 44.73883671190610301
0.012679145539692626699 56.16549374160530306 0.012679145539692626699 56.11404807375856052
0.015962098519750611558 70.53941079421284144 0.015962098519750611558 70.32338480237754652
0.020095091452091651263 88.54526087941012236 0.020095091452091651263 88.04161248852904009
0.025298221281346400247 111.07564343191658907 0.025298221281346400247 110.08714047347734777
0.031848573644282396344 139.22899788622481765 0.031848573644282396344 137.44320596489251329
0.040094978690191851456 174.34973516602258314 0.040094978690191851456 171.27662634884967474
0.050476587558421215363 218.07210925251200706 0.050476587558421215363 212.94988100646983753
0.063546258777947173257 272.36563174965232292 0.063546258777947173257 264.01981004538902198
0.079999999999998294697 339.57792945241766347 0.079999999999998294697 326.21280495982989578
0.100714032943542974863 422.46813261184865951 0.100714032943542974863 401.36190580696194274
0.126791455396897845276 524.21991468341525433 0.126791455396897845276 491.28579509254768709
0.159620985197506115583 648.41799360195636837 0.159620985197506115583 597.58380161946865883
0.200950914520774404082 798.96525531347424476 0.200950914520774404082 721.31610684971167302
0.252982212813464002465 979.91015914671504561 0.252982212813464002465 862.53766719669056329
0.318485736442795541734 1195.14729414370481209 0.318485736442795541734 1019.66497703458514934
0.400949786901819038576 1447.95166936984264794 0.400949786901819038576 1188.69025264186666391
0.504765875584169521062 1740.31739913717092350 0.504765875584169521062 1362.33915882180735935
0.635462587779443310865 2072.10743643303703720 0.635462587779443310865 1529.41651407876156554
0.799999999999997157829 2440.10002573951578597 0.799999999999997157829 1674.78895562258253449
1.007140329435330272645 2837.14752401381338132 1.007140329435330272645 1780.61661354414673042
1.267914553968893187630 3251.81498289061164542 1.267914553968893187630 1829.34477954020758261
1.596209851975103788391 3668.94364183467814655 1.596209851975103788391 1808.34294199134660630
2.009509145207687197399 4071.44101141772625851 2.009509145207687197399 1714.93520348295919575
2.529822128134711078928 4443.14537889429630013 2.529822128134711078928 1559.49801678468134014
3.184857364427983839050 4771.98377779398106213 3.184857364427983839050 1364.36164250125489161
4.009497869018190385759 5052.23898246989665495 4.009497869018190385759 1157.93456913212503423
5.009497869018190385759 5277.99941660226159001 5.009497869018190385759 971.55243751215766679
6.009497869018190385759 5433.34782652795092872 6.009497869018190385759 840.81526919639247808
7.009497869018204596614 5547.65782450432288897 7.009497869018204596614 749.86268932210236926
8.009497869018190385759 5636.31881229570353753 8.009497869018190385759 685.84900891222105201
9.009497869018204596614 5707.95851142863830319 9.009497869018204596614 640.98683683200204086
10.009497869018190385759 5767.70628870886503137 10.009497869018190385759 608.98118164981144673
11.009497869018190385759 5818.77784439622246282 11.009497869018190385759 583.02003601052808790
12.009497869018190385759 5863.28011382115437300 12.009497869018190385759 563.22472001920505136
13.009497869018190385759 5902.65308739400370541 13.009497869018190385759 547.81019488230754177
14.009497869018204596614 5937.91576333779812558 14.009497869018204596614 535.56755947371743787
15.009497869018190385759 5969.81211034876287158 15.009497869018190385759 525.65990984797633701
16.009497869018190385759 5998.90041103491057584 16.009497869018190385759 517.50134261783000511
17.009497869018190385759 6025.60996616179272678 17.009497869018190385759 510.82957946354559908
18.009497869018190385759 6050.27789179710816825 18.009497869018190385759 504.98828702581869265
19.009497869018204596614 6073.17290261812286190 19.009497869018204596614 500.15696873338322348
20.009497869018190385759 6094.51376628041998629 20.009497869018190385759 495.72565856023584274
21.009497869018204596614 6114.48122226195482654 21.009497869018204596614 491.82207427529306187
22.009497869018190385759 6133.22515921574904496 22.009497869018190385759 488.34666252160582189
23.009497869018190385759 6150.87244682731034118 23.009497869018190385759 485.27673088155489722
24.009497869018190385759 6167.53130274524028209 24.009497869018190385759 482.43228457539612464
25.009497869018190385759 6183.29410018854196096 25.009497869018190385759 479.83250766075150295
26.009497869018204596614 6198.24161557146999257 26.009497869018204596614 477.49197195014664885
27.009497869018190385759 6212.44339664081871888 27.009497869018190385759 475.26213794472039353
28.009497869018190385759 6225.96124042415522126 28.009497869018190385759 473.18268390435986248
29.009497869018190385759 6238.84897625047597103 29.009497869018190385759 471.24777641489993130
30.009497869018190385759 6251.15492442558388575 30.009497869018190385759 469.40586566929778201
31.009497869018190385759 6262.92173788566014991 31.009497869018190385759 467.66240985006226083
32.009497869018190385759 6274.18782029954036261 32.009497869018190385759 466.00312879087169904
33.009497869018190385759 6284.98765091878703970 33.009497869018190385759 464.42784307818425305
34.009497869018190385759 6295.35219763393433823 34.009497869018190385759 462.90537976861759262
35.009497869018190385759 6305.30977019717647636 35.009497869018190385759 461.43640833709764593
36.009497869018190385759 6314.88579147433210892 36.009497869018190385759 460.02160807626569294
37.009497869018190385759 6324.10357235081846738 37.009497869018190385759 458.65268561276610626
38.009497869018190385759 6332.98442890728983912 38.009497869018190385759 457.32455158976915754
39.009497869018190385759 6341.54775660263112513 39.009497869018190385759 456.02301747146617572
40.009497869018190385759 6349.81147349508137268 40.009497869018190385759 454.73864190135930130
41.009497869018190385759 6357.79207933823181520 41.009497869018190385759 453.51984484841574385
42.009497869018190385759 6365.50471993877363275 42.009497869018190385759 452.30025067342762668
43.009497869018190385759 6372.96344944199427118 43.009497869018190385759 451.13405518585136633
44.009497869018218807469 6380.18130533180737984 44.009497869018218807469 449.95944617029988422
46.009497869018190385759 6393.94178959476630553 46.009497869018190385759 447.67985898831557279
48.009497869018190385759 6406.87308165483500488 48.009497869018190385759 445.48637173733618511
50.009497869018190385759 6419.05080706543958513 50.009497869018190385759 443.31486999422963891
52.009497869018190385759 6430.54110432741344994 52.009497869018190385759 441.20487339911426261
54.009497869018190385759 6441.40235342071719060 54.009497869018190385759 439.16658349266293726
56.009497869018190385759 6451.68601455025600444 56.009497869018190385759 437.16918775999334912
58.009497869018218807469 6461.43810071193365729 58.009497869018218807469 435.11564152207000689
60.009497869018190385759 6470.69940186989151698 60.009497869018190385759 433.19585426177894760
62.009497869018190385759 6479.50678792183680343 62.009497869018190385759 431.31038352635818001
64.009497869018190385759 6487.89319017540037748 64.009497869018190385759 429.45729016968545011
66.009497869018190385759 6495.88846356888097944 66.009497869018190385759 427.60502910901766427
68.009497869018190385759 6503.51971942087220668 68.009497869018190385759 425.76607246716309874
70.009497869018190385759 6510.81125171746589331 70.009497869018190385759 424.01610547301811494
72.009497869018218807469 6517.78564815563186130 72.009497869018218807469 422.26896722284698171
74.009497869018190385759 6524.46323095608113363 74.009497869018190385759 420.57343752708482043
76.009497869018190385759 6530.86259395689103258 76.009497869018190385759 418.91331625267906702
78.009497869018190385759 6537.00107033640324516 78.009497869018190385759 417.27611256266027340
80.009497869018190385759 6542.89428991281329218 80.009497869018190385759 415.68487236478591740
82.009497869018218807469 6548.55670631010889338 82.009497869018218807469 414.13447860529618083
84.009497869018190385759 6554.00188536722816934 84.009497869018190385759 412.63685444466153740
86.009497869018190385759 6559.24208431084025506 86.009497869018190385759 411.14499105433202431
88.009497869018190385759 6564.28866125324111636 88.009497869018190385759 409.71335410574266689
91.009497869018218807469 6571.51894290689506306 91.009497869018218807469 407.61612603650951314
94.009497869018190385759 6578.37033810181128501 94.009497869018190385759 405.60159669912343361
97.009497869018190385759 6584.87229083154579712 97.009497869018190385759 403.65450561057315326
99.504748934509109403734 6590.03332159972705995 99.504748934509109403734 402.40557777082392477
nan nan nan nan

