Time Pressure difference Time.1 Pressure.1 difference.1
(hr) (psi) (hr) (psi)
0.000200000000006639311 0.88636808170470294 0.000200000000006639311 0.70658093911043840
0.000399999999999067768 1.77223415870162926 0.000399999999999067768 1.84949562862687511
0.000600000000005707079 2.65767478816129854 0.000600000000005707079 2.70599488292394330
0.000799999999998135536 3.54272664052037722 0.000799999999998135536 3.57794949657380768
0.001007140329434719206 4.45898459823826876 0.001007140329434719206 4.49329525179062550
0.001267914553963578328 5.61194399763394269 0.001267914553963578328 5.65377408080390254
0.001596209851982166583 7.06260960458457898 0.001596209851982166583 7.11318414237885399
0.002009509145210586212 8.88763221951857574 0.002009509145210586212 8.94810870397870950
0.002529822128138903281 11.18328022085008122 0.002529822128138903281 11.25452523577134656
0.003184857364445292660 14.07039688983717873 0.003184857364445292660 14.15259451767961352
0.004009497869020606231 17.70057597457062570 0.004009497869020606231 17.79256534708088111
0.005047658755842121536 22.26383595758387912 0.005047658755842121536 22.36201732823006694
0.006354625877804664924 27.99812746295183175 0.006354625877804664924 28.09468672918001886
0.008000000000009777068 35.20106634721591377 0.008000000000009777068 35.28113054348100519
0.010071403294347192059 44.24434324980599342 0.010071403294347192059 44.28146942210037906
0.012679145539692626699 55.59131118476732780 0.012679145539692626699 55.54039144846921516
0.015962098519750611558 69.81828298869578475 0.015962098519750611558 69.60446544101496613
0.020095091452091651263 87.64005839830092270 0.020095091452091651263 87.14155882925967944
0.025298221281346400247 109.94011176114419470 0.025298221281346400247 108.96171431622060766
0.031848573644282396344 137.80565311229500480 0.031848573644282396344 136.03811742807670271
0.040094978690191851456 172.56734939759670056 0.040094978690191851456 169.52565712037630874
0.050476587558421215363 215.84274754082278491 0.050476587558421215363 210.77288408168249134
0.063546258777947173257 269.58122473362425353 0.063546258777947173257 261.32072276797339327
0.079999999999998294697 336.10640786879628195 0.079999999999998294697 322.87791568979446311
0.100714032943542974863 418.14922047548219552 0.100714032943542974863 397.25876364722535072
0.126791455396897845276 518.86078916155884144 0.126791455396897845276 486.26335666688038373
0.159620985197506115583 641.78918511717802176 0.159620985197506115583 591.47467353599824946
0.200950914520774404082 790.79739489670078001 0.200950914520774404082 713.94205743024429012
0.252982212813464002465 969.89249023350510015 0.252982212813464002465 853.71990294096235630
0.318485736442795541734 1182.92924559762604986 0.318485736442795541734 1009.24089269687090109
0.400949786901819038576 1433.14918947851515441 0.400949786901819038576 1176.53821474311121165
0.504765875584169521062 1722.52605026123319476 0.504765875584169521062 1348.41189976321970789
0.635462587779443310865 2050.92418197136112212 0.635462587779443310865 1513.78121514301210482
0.799999999999997157829 2415.15476525333087920 0.799999999999997157829 1657.66750719149649740
1.007140329435330272645 2808.14322776460130626 1.007140329435330272645 1762.41328385178098870
1.267914553968893187630 3218.57152116961060528 1.267914553968893187630 1810.64329945197118832
1.596209851975103788391 3631.43585367465811942 1.596209851975103788391 1789.85616470333116013
2.009509145207687197399 4029.81847319691269149 2.009509145207687197399 1697.40333801984343154
2.529822128134711078928 4397.72288896136160474 2.529822128134711078928 1543.55519319301652104
3.184857364427983839050 4723.19955701727758424 3.184857364427983839050 1350.41370749427187548
4.009497869018190385759 5000.58969919185801700 4.009497869018190385759 1146.09694807222399504
5.009497869018190385759 5224.04217349573264073 5.009497869018190385759 961.62020999112257869
6.009497869018190385759 5377.80244911920817685 6.009497869018190385759 832.21957406520255063
7.009497869018204596614 5490.94385046199204226 7.009497869018204596614 742.19680681044519588
8.009497869018190385759 5578.69845269045072200 8.009497869018190385759 678.83754134899209021
9.009497869018204596614 5649.60577571700741828 9.009497869018204596614 634.43399742200938363
10.009497869018190385759 5708.74274858266016963 10.009497869018190385759 602.75553759948809329
11.009497869018190385759 5759.29219728808220680 11.009497869018190385759 577.05979400670310042
12.009497869018190385759 5803.33951786201578216 12.009497869018190385759 557.46684648741018009
13.009497869018190385759 5842.30997962324636319 13.009497869018190385759 542.20990478592705131
14.009497869018204596614 5877.21216352672399807 14.009497869018204596614 530.09242643077050161
15.009497869018190385759 5908.78243264073717000 15.009497869018190385759 520.28606318596177971
16.009497869018190385759 5937.57336222321555397 16.009497869018190385759 512.21090138288934668
17.009497869018190385759 5964.00986427723910310 17.009497869018190385759 505.60734398575840487
18.009497869018190385759 5988.42560851665530208 18.009497869018190385759 499.82576736291531461
19.009497869018204596614 6011.08656253559547622 19.009497869018204596614 495.04383987086714569
20.009497869018190385759 6032.20925751733102516 20.009497869018190385759 490.65783119577253046
21.009497869018204596614 6051.97258523139589670 21.009497869018204596614 486.79415344162379142
22.009497869018190385759 6070.52490201187083585 22.009497869018190385759 483.35427099025110920
23.009497869018190385759 6087.99178054933508975 23.009497869018190385759 480.31572340971740687
24.009497869018190385759 6104.48033217814190721 24.009497869018190385759 477.50035601561052090
25.009497869018190385759 6120.08198578141036705 25.009497869018190385759 474.92715674600407283
26.009497869018204596614 6134.87669199220727023 26.009497869018204596614 472.61054844508009865
27.009497869018190385759 6148.93328756735263596 27.009497869018190385759 470.40351014045285183
28.009497869018190385759 6162.31293778041344922 28.009497869018190385759 468.34531445924091031
29.009497869018190385759 6175.06892166055422422 29.009497869018190385759 466.43018762255428555
30.009497869018190385759 6187.24906553275650367 30.009497869018190385759 464.60710681951866263
31.009497869018190385759 6198.89558629017483327 31.009497869018190385759 462.88147443337948062
32.009497869018190385759 6210.04649499908100552 32.009497869018190385759 461.23915628464533256
33.009497869018190385759 6220.73591842798214202 33.009497869018190385759 459.67997479392772675
34.009497869018190385759 6230.99450788117246702 34.009497869018190385759 458.17307570035109165
35.009497869018190385759 6240.85028369887822919 35.009497869018190385759 456.71912163476667956
36.009497869018190385759 6250.32840884773577272 36.009497869018190385759 455.31878494537454571
37.009497869018190385759 6259.45195590485400317 37.009497869018190385759 453.96385704237536629
38.009497869018190385759 6268.24202303556103288 38.009497869018190385759 452.64930059768045112
39.009497869018190385759 6276.71780741803195269 39.009497869018190385759 451.36107212556828472
40.009497869018190385759 6284.89704393332885957 40.009497869018190385759 450.08982678898479435
41.009497869018190385759 6292.79606365726522199 41.009497869018190385759 448.88348955721448874
42.009497869018190385759 6300.42985756021698762 42.009497869018190385759 447.67636335241672896
43.009497869018190385759 6307.81233611126663163 43.009497869018190385759 446.52208993766885214
44.009497869018218807469 6314.95640351150177594 44.009497869018218807469 445.35948900684888940
46.009497869018190385759 6328.57621367883530183 46.009497869018190385759 443.10320615479190565
48.009497869018190385759 6341.37530851524206810 48.009497869018190385759 440.93214302998427456
50.009497869018190385759 6353.42854045045896783 50.009497869018190385759 438.78284065413998860
52.009497869018190385759 6364.80137184823070129 52.009497869018190385759 436.69441465618655229
54.009497869018190385759 6375.55158586715970159 54.009497869018190385759 434.67696228595355024
56.009497869018190385759 6385.73011663199122268 56.009497869018190385759 432.69998602638742113
58.009497869018218807469 6395.38250674554819852 58.009497869018218807469 430.66743329089649706
60.009497869018190385759 6404.54912917419551377 60.009497869018190385759 428.76727210854511441
62.009497869018190385759 6413.26647689289620757 62.009497869018190385759 426.90107663157198203
64.009497869018190385759 6421.56714455093060678 64.009497869018190385759 425.06692753783920580
66.009497869018190385759 6429.48068187812077667 66.009497869018190385759 423.23360223150910997
68.009497869018190385759 6437.03392303273994912 68.009497869018190385759 421.41344533227572811
70.009497869018190385759 6444.25091364228774182 70.009497869018190385759 419.68136833528274110
72.009497869018218807469 6451.15401048861258460 72.009497869018218807469 417.95209116387729864
74.009497869018190385759 6457.76332803738478106 74.009497869018190385759 416.27389495013505893
76.009497869018190385759 6464.09727004097476311 76.009497869018190385759 414.63074517574648326
78.009497869018190385759 6470.17299247980463406 78.009497869018190385759 413.01027869817204419
80.009497869018190385759 6476.00596538768240862 80.009497869018190385759 411.43530582574072696
82.009497869018218807469 6481.61049462850041891 82.009497869018218807469 409.90076181658037058
84.009497869018190385759 6487.00000735696812626 84.009497869018190385759 408.41844794011575459
86.009497869018190385759 6492.18663549353641429 86.009497869018190385759 406.94183594132300641
88.009497869018190385759 6497.18162103596841916 88.009497869018190385759 405.52483468644607001
91.009497869018218807469 6504.33798717085846874 91.009497869018218807469 403.44904668111769297
94.009497869018190385759 6511.11934022158857260 94.009497869018190385759 401.45511197450412055
97.009497869018190385759 6517.55482317434598372 97.009497869018190385759 399.52792609224945863
99.504748934509109403734 6522.66309247556637274 99.504748934509109403734 398.29176610216313748
nan nan nan nan

