Time Pressure difference Time.1 Pressure.1 difference.1
(hr) (psi) (hr) (psi)
0.000200000000006639311 0.19391902632600544 0.000200000000006639311 0.15458531343918508
0.000399999999999067768 0.38772822439199967 0.000399999999999067768 0.40463143800005813
0.000600000000005707079 0.58144434332542960 0.000600000000005707079 0.59201578189791437
0.000799999999998135536 0.77507540586032664 0.000799999999998135536 0.78278143915652321
0.001007140329434719206 0.97553371961456947 0.001007140329434719206 0.98304018184715092
0.001267914553963578328 1.22777741920066519 0.001267914553963578328 1.23692897730263796
0.001596209851982166583 1.54515308720019418 0.001596209851982166583 1.55621775133734563
0.002009509145210586212 1.94443033535007315 0.002009509145210586212 1.95766134087045929
0.002529822128138903281 2.44667069620475885 0.002529822128138903281 2.46225763374152473
0.003184857364445292660 3.07831218341038726 0.003184857364445292660 3.09629532640314586
0.004009497869020606231 3.87252037753516998 0.004009497869020606231 3.89264575199046492
0.005047658755842121536 4.87086739729299811 0.005047658755842121536 4.89234745303061569
0.006354625877804664924 6.12541192381950861 0.006354625877804664924 6.14653709661872760
0.008000000000009777068 7.70126615859277663 0.008000000000009777068 7.71878255082729936
0.010071403294347192059 9.67974833540356450 0.010071403294347192059 9.68787077497595028
0.012679145539692626699 12.16223052211341660 0.012679145539692626699 12.15109033567448371
0.015962098519750611558 15.27479806231560566 0.015962098519750611558 15.22801919977134588
0.020095091452091651263 19.17383437258602186 0.020095091452091651263 19.06477296452348114
0.025298221281346400247 24.05262538999680899 0.025298221281346400247 23.83857224007455500
0.031848573644282396344 30.14903021142228923 0.031848573644282396344 29.76232991618955026
0.040094978690191851456 37.75417127665730277 0.040094978690191851456 37.08871183948139105
0.050476587558421215363 47.22193443850864725 0.050476587558421215363 46.11275304322256119
0.063546258777947173257 58.97880315768493631 0.063546258777947173257 57.17157596707775014
0.079999999999998294697 73.53313899852538782 0.079999999999998294697 70.63901817438696185
0.100714032943542974863 91.48241161576275715 0.100714032943542974863 86.91201120169343142
0.126791455396897845276 113.51602241750534006 0.126791455396897845276 106.38437756186210947
0.159620985197506115583 140.41021608666900988 0.159620985197506115583 129.40244031350948717
0.200950914520774404082 173.01013428256459292 0.200950914520774404082 156.19577406689853660
0.252982212813464002465 212.19244152526448488 0.252982212813464002465 186.77627923497109919
0.318485736442795541734 258.80048283966846157 0.318485736442795541734 220.80105915339993317
0.400949786901819038576 313.54343769811646325 0.400949786901819038576 257.40225730999526377
0.504765875584169521062 376.85311709940594938 0.504765875584169521062 295.00466915007530133
0.635462587779443310865 448.69984450641044305 0.635462587779443310865 331.18405927541959954
0.799999999999997157829 528.38597211645640073 0.799999999999997157829 362.66340767663729139
1.007140329435330272645 614.36372964239637895 1.007140329435330272645 385.57961984738494721
1.267914553968893187630 704.15696190846881564 1.267914553968893187630 396.13135095991481194
1.596209851975103788391 794.48314920769507808 1.596209851975103788391 391.58355528251286160
2.009509145207687197399 881.64103685904296981 2.009509145207687197399 371.35678662781555204
2.529822128134711078928 962.13092312488004154 2.529822128134711078928 337.69799062344867480
3.184857364427983839050 1033.33849463382694012 3.184857364427983839050 295.44262332973272578
4.009497869018190385759 1094.02572761662236189 4.009497869018190385759 250.74233699608282677
5.009497869018190385759 1142.91251307465336140 5.009497869018190385759 210.38263749101554367
6.009497869018190385759 1176.55208511246519265 6.009497869018190385759 182.07245141520394327
7.009497869018204596614 1201.30508653299943944 7.009497869018204596614 162.37732956510211579
8.009497869018190385759 1220.50398072946018146 8.009497869018190385759 148.51563111203299172
9.009497869018204596614 1236.01703825545814652 9.009497869018204596614 138.80105295711567237
10.009497869018190385759 1248.95498630963356845 10.009497869018190385759 131.87046033866732841
11.009497869018190385759 1260.01416147241616272 11.009497869018190385759 126.24876244465897912
12.009497869018190385759 1269.65080531629087091 12.009497869018190385759 121.96223026438175907
13.009497869018190385759 1278.17673732602474956 13.009497869018190385759 118.62432658696806698
14.009497869018204596614 1285.81261418002509345 14.009497869018204596614 115.97327263696668354
15.009497869018190385759 1292.71953690637701584 15.009497869018190385759 113.82784293176439405
16.009497869018190385759 1299.01839755681612587 16.009497869018190385759 112.06116434010630201
17.009497869018190385759 1304.80215810009076449 17.009497869018190385759 110.61644239312836646
18.009497869018190385759 1310.14381857688317723 18.009497869018190385759 109.35155285968006922
19.009497869018204596614 1315.10156720262330055 19.009497869018204596614 108.30536590602071101
20.009497869018190385759 1319.72277652726552333 20.009497869018190385759 107.34579781090607753
21.009497869018204596614 1324.04658437456828324 21.009497869018204596614 106.50050493135994145
22.009497869018190385759 1328.10544804578944422 22.009497869018190385759 105.74792970960423588
23.009497869018190385759 1331.92684025163862316 23.009497869018190385759 105.08315826710250462
24.009497869018190385759 1335.53419473944313722 24.009497869018190385759 104.46721403909599246
25.009497869018190385759 1338.94751426015818652 25.009497869018190385759 103.90425119419619193
26.009497869018204596614 1342.18429036073644056 26.009497869018204596614 103.39742515277339407
27.009497869018190385759 1345.25958310158989661 27.009497869018190385759 102.91457076312255481
28.009497869018190385759 1348.18677418106699406 28.009497869018190385759 102.46428006479168005
29.009497869018190385759 1350.97751995014959903 29.009497869018190385759 102.04528987423019259
30.009497869018190385759 1353.64228382078158575 30.009497869018190385759 101.64643745441112799
31.009497869018190385759 1356.19030197709957974 31.009497869018190385759 101.26890473519006264
32.009497869018190385759 1358.62989045519793763 32.009497869018190385759 100.90959945006794385
33.009497869018190385759 1360.96851548706081303 33.009497869018190385759 100.56848274834285917
34.009497869018190385759 1363.21288294489477266 34.009497869018190385759 100.23880435510028519
35.009497869018190385759 1365.36912310031766538 35.009497869018190385759 99.92070924028229228
36.009497869018190385759 1367.44274109063144351 36.009497869018190385759 99.61434449978617067
37.009497869018190385759 1369.43878471908988104 37.009497869018190385759 99.31791426373095533
38.009497869018190385759 1371.36186982843742044 38.009497869018190385759 99.03031646878831395
39.009497869018190385759 1373.21619636469608849 39.009497869018190385759 98.74847869038254089
40.009497869018190385759 1375.00564435348883308 40.009497869018190385759 98.47035647120512181
41.009497869018190385759 1376.73378669684780107 41.009497869018190385759 98.20643480453612995
42.009497869018190385759 1378.40390310941847929 42.009497869018190385759 97.94234052686675795
43.009497869018190385759 1380.01903691448387690 43.009497869018190385759 97.68980934786557668
44.009497869018218807469 1381.58201128467590024 44.009497869018218807469 97.43545628037163908
46.009497869018190385759 1384.56174440109703028 46.009497869018190385759 96.94182820100141385
48.009497869018190385759 1387.36192195685566730 48.009497869018190385759 96.46684443754584493
50.009497869018190385759 1389.99892011733049912 50.009497869018190385759 95.99662147644565380
52.009497869018190385759 1392.48706069543459307 52.009497869018190385759 95.53971700928775590
54.009497869018190385759 1394.83898545262741209 54.009497869018190385759 95.09834010575322338
56.009497869018190385759 1397.06583772324302117 56.009497869018190385759 94.66581853910635402
58.009497869018218807469 1399.17758128799323458 58.009497869018218807469 94.22113798758580572
60.009497869018190385759 1401.18304891792240596 60.009497869018190385759 93.80542197304319529
62.009497869018190385759 1403.09022452210774645 62.009497869018190385759 93.39713695319838394
64.009497869018190385759 1404.90623913649460519 64.009497869018190385759 92.99586302001553406
66.009497869018190385759 1406.63755763155131717 66.009497869018190385759 92.59476931449916037
68.009497869018190385759 1408.29005076678708974 68.009497869018190385759 92.19655658443214463
70.009497869018190385759 1409.86897922878210920 70.009497869018190385759 91.81761391748439394
72.009497869018218807469 1411.37923421957452774 72.009497869018218807469 91.43928379453841160
74.009497869018190385759 1412.82521636874230353 74.009497869018190385759 91.07212912993564657
76.009497869018190385759 1414.21095203713343835 76.009497869018190385759 90.71264190229946678
78.009497869018190385759 1415.54019459886808363 78.009497869018190385759 90.35811731143107295
80.009497869018190385759 1416.81632857777458412 80.009497869018190385759 90.01354578159397590
82.009497869018218807469 1418.04248380135277330 82.009497869018218807469 89.67781925189034098
84.009497869018190385759 1419.22159785368421581 84.009497869018190385759 89.35351959628822271
86.009497869018190385759 1420.35632494835112993 86.009497869018190385759 89.03046739373544938
88.009497869018190385759 1421.44912460223531525 88.009497869018190385759 88.72045679055580081
91.009497869018218807469 1423.01478968151172921 91.009497869018218807469 88.26631725511776949
94.009497869018190385759 1424.49840964472309679 94.009497869018190385759 87.83008553057226209
97.009497869018190385759 1425.90636037523245250 97.009497869018190385759 87.40845706994754494
99.504748934509109403734 1427.02394417540563154 99.504748934509109403734 87.13801079981597297
nan nan nan nan

