Time Pressure difference Time.1 Pressure.1 difference.1
(hr) (psi) (hr) (psi)
0.000200000000006639311 0.55595669350116583 0.000200000000006639311 0.44318879561105429
0.000399999999999067768 1.11159851456590464 0.000399999999999067768 1.16005922997441568
0.000600000000005707079 1.66697348215187557 0.000600000000005707079 1.69728129745839817
0.000799999999998135536 2.22210459705879027 0.000799999999998135536 2.24419743071483913
0.001007140329434719206 2.79680911889498907 0.001007140329434719206 2.81832979173346265
0.001267914553963578328 3.51997989710748715 0.001267914553963578328 3.54621698213803516
0.001596209851982166583 4.42988095386150160 0.001596209851982166583 4.46160282357659632
0.002009509145210586212 5.57458997430836511 0.002009509145210586212 5.61252264249556543
0.002529822128138903281 7.01448937796042582 0.002529822128138903281 7.05917639201432845
0.003184857364445292660 8.82537570179458619 0.003184857364445292660 8.87693252376524278
0.004009497869020606231 11.10233309954289105 0.004009497869020606231 11.16003159798124678
0.005047658755842121536 13.96454687292584929 0.005047658755842121536 14.02612917864571251
0.006354625877804664924 17.56126680305335341 0.006354625877804664924 17.62183167614295698
0.008000000000009777068 22.07916649759645722 0.008000000000009777068 22.12938516717869319
0.010071403294347192059 27.75138149377502828 0.010071403294347192059 27.77466814456624533
0.012679145539692626699 34.86854072434232421 0.012679145539692626699 34.83660233575346155
0.015962098519750611558 43.79212491685332509 0.015962098519750611558 43.65801212638308471
0.020095091452091651263 54.97047794372301865 0.020095091452091651263 54.65780403562954604
0.025298221281346400247 68.95774146145008388 0.025298221281346400247 68.34406118613649994
0.031848573644282396344 86.43584627137377652 0.031848573644282396344 85.32719478117863332
0.040094978690191851456 108.23942666440807159 0.040094978690191851456 106.33158587456468069
0.050476587558421215363 135.38305667349260375 0.050476587558421215363 132.20308597799430572
0.063546258777947173257 169.08944424606667667 0.063546258777947173257 163.90820921033449054
0.079999999999998294697 210.81603798718865050 0.079999999999998294697 202.51873021669737795
0.100714032943542974863 262.27575519025549511 0.100714032943542974863 249.17263297309534664
0.126791455396897845276 325.44507714546597299 0.126791455396897845276 304.99898803143298665
0.159620985197506115583 402.54946071199526614 0.159620985197506115583 370.99068725074823760
0.200950914520774404082 496.01188712769589984 0.200950914520774404082 447.80591020037866201
0.252982212813464002465 608.34571218402004433 0.252982212813464002465 535.47877480240640580
0.318485736442795541734 741.96876625278332540 0.318485736442795541734 633.02621250845993472
0.400949786901819038576 898.91423340060850933 0.400949786901819038576 737.96011966985759045
0.504765875584169521062 1080.42009537512103634 0.504765875584169521062 845.76445919420734754
0.635462587779443310865 1286.40127094541708175 0.635462587779443310865 949.48906264369213659
0.799999999999997157829 1514.85763679739443432 0.799999999999997157829 1039.73886836048814075
1.007140329435330272645 1761.35180858850117147 1.007140329435330272645 1105.43856677276016853
1.267914553968893187630 2018.78476632985893957 1.267914553968893187630 1135.68988172198760367
1.596209851975103788391 2277.74568099030193480 1.596209851975103788391 1122.65156621767641809
2.009509145207687197399 2527.62323013665536564 2.009509145207687197399 1064.66237539648386701
2.529822128134711078928 2758.38393410909839076 2.529822128134711078928 968.16419629383563006
3.184857364427983839050 2962.53267989440519159 3.184857364427983839050 847.02005315133669683
4.009497869018190385759 3136.52011179357850779 4.009497869018190385759 718.86644254670943610
5.009497869018190385759 3276.67621774192411976 5.009497869018190385759 603.15708945922051498
6.009497869018190385759 3373.11928264002926880 6.009497869018190385759 521.99312251225853743
7.009497869018204596614 3444.08496911606653157 7.009497869018204596614 465.52813798063601780
8.009497869018190385759 3499.12729239175678231 8.009497869018190385759 425.78730293063534873
9.009497869018204596614 3543.60249594268634610 9.009497869018204596614 397.93606598864062107
10.009497869018190385759 3580.69498220959349055 10.009497869018190385759 378.06638414690894479
11.009497869018190385759 3612.40111529430896553 11.009497869018190385759 361.94924168683348853
12.009497869018190385759 3640.02891824584685310 12.009497869018190385759 349.65995629445069426
13.009497869018190385759 3664.47236280594233904 13.009497869018190385759 340.09034403474106512
14.009497869018204596614 3686.36406125432131375 14.009497869018204596614 332.48989751714054819
15.009497869018190385759 3706.16588263287530935 15.009497869018190385759 326.33905183870649580
16.009497869018190385759 3724.22441874658034067 16.009497869018190385759 321.27406772184986039
17.009497869018190385759 3740.80618717107563498 17.009497869018190385759 317.13211810562120263
18.009497869018190385759 3756.12047557664391206 18.009497869018190385759 313.50573952903982899
19.009497869018204596614 3770.33410682983821971 19.009497869018204596614 310.50637092369885295
20.009497869018190385759 3783.58289579490747201 20.009497869018190385759 307.75533449650328066
21.009497869018204596614 3795.97904876485654313 21.009497869018204596614 305.33191971737528547
22.009497869018190385759 3807.61561929007484650 22.009497869018190385759 303.17432208590395248
23.009497869018190385759 3818.57137033517028613 23.009497869018190385759 301.26845374431104574
24.009497869018190385759 3828.91348534741655385 24.009497869018190385759 299.50257072152845694
25.009497869018190385759 3838.69931126946630684 25.009497869018190385759 297.88858282284570578
26.009497869018204596614 3847.97899554065224947 26.009497869018204596614 296.43553648949620083
27.009497869018190385759 3856.79571464318496510 27.009497869018190385759 295.05121575006808143
28.009497869018190385759 3865.18783327447545162 28.009497869018190385759 293.76025357631266388
29.009497869018190385759 3873.18876964248875083 29.009497869018190385759 292.55902848062555677
30.009497869018190385759 3880.82852185528781774 30.009497869018190385759 291.41553742294689755
31.009497869018190385759 3888.13356961674844570 31.009497869018190385759 290.33316894037324118
32.009497869018190385759 3895.12775460975262831 32.009497869018190385759 289.30305765083852521
33.009497869018190385759 3901.83248216891252014 33.009497869018190385759 288.32509217121474876
34.009497869018190385759 3908.26697771326053044 34.009497869018190385759 287.37991978200426502
35.009497869018190385759 3914.44881644211272942 35.009497869018190385759 286.46795610518699959
36.009497869018190385759 3920.39378132421370537 36.009497869018190385759 285.58962285775606915
37.009497869018190385759 3926.11634417318509804 37.009497869018190385759 284.73977136554623257
38.009497869018190385759 3931.62973839225833217 38.009497869018190385759 283.91524206502401739
39.009497869018190385759 3936.94600502839921319 39.009497869018190385759 283.10722645998083635
40.009497869018190385759 3942.07626793189047021 40.009497869018190385759 282.30986318783271827
41.009497869018190385759 3947.03077044418205332 41.009497869018190385759 281.55321222931382863
42.009497869018190385759 3951.81891535232352908 42.009497869018190385759 280.79606640320599809
43.009497869018190385759 3956.44942772049489577 43.009497869018190385759 280.07207143508242098
44.009497869018218807469 3960.93040145134500563 44.009497869018218807469 279.34285319866205555
46.009497869018190385759 3969.47315562202993533 46.009497869018190385759 277.92764479943753031
48.009497869018190385759 3977.50113247716535625 48.009497869018190385759 276.56588877373661717
50.009497869018190385759 3985.06128170977126501 50.009497869018190385759 275.21778174362958680
52.009497869018190385759 3992.19466328133194111 52.009497869018190385759 273.90785820688506647
54.009497869018190385759 3998.93752052512945738 54.009497869018190385759 272.64245146198777547
56.009497869018190385759 4005.32180085462005081 56.009497869018190385759 271.40243254988433819
58.009497869018218807469 4011.37606995870964965 58.009497869018218807469 270.12755440217728164
60.009497869018190385759 4017.12565097498827527 60.009497869018190385759 268.93571621456163712
62.009497869018190385759 4022.59343339385441141 62.009497869018190385759 267.76518233792495494
64.009497869018190385759 4027.79986155870619768 64.009497869018190385759 266.61474891575267065
66.009497869018190385759 4032.76346994796676881 66.009497869018190385759 265.46483219779162255
68.009497869018190385759 4037.50108975199100314 68.009497869018190385759 264.32317510043208131
70.009497869018190385759 4042.02780311084370624 70.009497869018190385759 263.23676436429008163
72.009497869018218807469 4046.35763286985275045 72.009497869018218807469 262.15210976288267375
74.009497869018190385759 4050.50319542626539260 74.009497869018190385759 261.09949467294853775
76.009497869018190385759 4054.47603416654555986 76.009497869018190385759 260.06886176281562939
78.009497869018190385759 4058.28690983709793727 78.009497869018190385759 259.05245649800838237
80.009497869018190385759 4061.94552570795485735 80.009497869018190385759 258.06458618929093518
82.009497869018218807469 4065.46085484679633737 82.009497869018218807469 257.10207407838089466
84.009497869018190385759 4068.84131916850219568 84.009497869018190385759 256.17232227605381922
86.009497869018190385759 4072.09452817810506531 86.009497869018190385759 255.24614686272656172
88.009497869018190385759 4075.22753319439152619 88.009497869018190385759 254.35736109910416758
91.009497869018218807469 4079.71622106115728457 91.009497869018218807469 253.05536449106725172
94.009497869018190385759 4083.96968945354046809 94.009497869018190385759 251.80470873142604660
97.009497869018190385759 4088.00621772813428834 97.009497869018190385759 250.59591984002128129
99.504748934509109403734 4091.21027772176375947 99.504748934509109403734 249.82056315140371794
nan nan nan nan

