Time Pressure difference Time.1 Pressure.1 difference.1
(hr) (psi) (hr) (psi)
0.000200000000006639311 0.51600770953701014 0.000200000000006639311 0.41134289413002045
0.000399999999999067768 1.03172317220188758 0.000399999999999067768 1.07670168051517612
0.000600000000005707079 1.54719095648826754 0.000600000000005707079 1.57532096470689642
0.000799999999998135536 2.06243241044378767 0.000799999999998135536 2.08293773509461122
0.001007140329434719206 2.59584079897439102 0.001007140329434719206 2.61581507615980069
0.001267914553963578328 3.26704720989018282 0.001267914553963578328 3.29139899539757730
0.001596209851982166583 4.11156615478163268 0.001596209851982166583 4.14100860870881693
0.002009509145210586212 5.17402063483710517 0.002009509145210586212 5.20922760231624338
0.002529822128138903281 6.51045421307704153 0.002529822128138903281 6.55193018420491491
0.003184857364445292660 8.19121696873150285 0.003184857364445292660 8.23906910888390698
0.004009497869020606231 10.30456066125238301 0.004009497869020606231 10.35811315980295255
0.005047658755842121536 12.96110637906291529 0.005047658755842121536 13.01826360892266798
0.006354625877804664924 16.29937936810341270 0.006354625877804664924 16.35559227426442064
0.008000000000009777068 20.49263956363743233 0.008000000000009777068 20.53924970606405509
0.010071403294347192059 25.75727024871335047 0.010071403294347192059 25.77888360723214234
0.012679145539692626699 32.36301683995844058 0.012679145539692626699 32.33337342539991965
0.015962098519750611558 40.64538540186985216 0.015962098519750611558 40.52090945861903748
0.020095091452091651263 51.02050348070100938 0.020095091452091651263 50.73029715881784796
0.025298221281346400247 64.00269417080696144 0.025298221281346400247 63.43311068174345735
0.031848573644282396344 80.22488725786189434 0.031848573644282396344 79.19589934780051976
0.040094978690191851456 100.46174331127694757 0.040094978690191851456 98.69099287758996297
0.050476587558421215363 125.65493284066677404 0.050476587558421215363 122.70346303346777006
0.063546258777947173257 156.93930453976250305 0.063546258777947173257 152.13037381797511216
0.079999999999998294697 195.66758016774997486 0.079999999999998294697 187.96648612927003796
0.100714032943542974863 243.42959314065626586 0.100714032943542974863 231.26801263969926481
0.126791455396897845276 302.05980214100134162 0.126791455396897845276 283.08289308306655130
0.159620985197506115583 373.62375096023509968 0.159620985197506115583 344.33267379560464860
0.200950914520774404082 460.37031439995729443 0.200950914520774404082 415.62824000633941068
0.252982212813464002465 564.63224783546775143 0.252982212813464002465 497.00125805013772151
0.318485736442795541734 688.65364532443959433 0.318485736442795541734 587.53929903479809127
0.400949786901819038576 834.32159387481635804 0.400949786901819038576 684.93304520256242540
0.504765875584169521062 1002.78511846193862311 0.504765875584169521062 784.99096512037215234
0.635462587779443310865 1193.96525147628540253 0.635462587779443310865 881.26230365133096711
0.799999999999997157829 1406.00559103949785822 0.799999999999997157829 965.02709338847682830
1.007140329435330272645 1634.78760677375862542 1.007140329435330272645 1026.00585538789118800
1.267914553968893187630 1873.72238791094719090 1.267914553968893187630 1054.08342315513800713
1.596209851975103788391 2114.07533265566962655 1.596209851975103788391 1041.98199259724447074
2.009509145207687197399 2345.99760880947042097 2.009509145207687197399 988.15968973925168939
2.529822128134711078928 2560.17670531084013419 2.529822128134711078928 898.59551153020686343
3.184857364427983839050 2749.65608014151348470 3.184857364427983839050 786.15633675722870066
4.009497869018190385759 2911.14142112577656007 4.009497869018190385759 667.21136883077826951
5.009497869018190385759 3041.22642964070837479 5.009497869018190385759 559.81646027652209341
6.009497869018190385759 3130.73945394733254943 6.009497869018190385759 484.48463466706624558
7.009497869018204596614 3196.60580965862482117 7.009497869018204596614 432.07701429340471577
8.009497869018190385759 3247.69299593246887525 8.009497869018190385759 395.19180810927235825
9.009497869018204596614 3288.97237647375095548 9.009497869018204596614 369.34185765412757974
10.009497869018190385759 3323.39953438614929837 10.009497869018190385759 350.89993738186160499
11.009497869018190385759 3352.82738245878999805 11.009497869018190385759 335.94091294286937455
12.009497869018190385759 3378.46995406051655664 12.009497869018190385759 324.53468997389137485
13.009497869018190385759 3401.15698344264137631 13.009497869018190385759 315.65271452326271628
14.009497869018204596614 3421.47562571508842666 14.009497869018204596614 308.59840787519033256
15.009497869018190385759 3439.85456172512385820 15.009497869018190385759 302.88953913173361343
16.009497869018190385759 3456.61547847736483163 16.009497869018190385759 298.18850596938159470
17.009497869018190385759 3472.00574258393271521 17.009497869018190385759 294.34418147527713927
18.009497869018190385759 3486.21960308011830421 18.009497869018190385759 290.97838100000706163
19.009497869018204596614 3499.41189556062863630 19.009497869018204596614 288.19453588726537419
20.009497869018190385759 3511.70867573778832593 20.009497869018190385759 285.64117872429943645
21.009497869018204596614 3523.21408717696294843 21.009497869018204596614 283.39190153409077766
22.009497869018190385759 3534.01449694587745398 22.009497869018190385759 281.38934085817430741
23.009497869018190385759 3544.18300839491848819 23.009497869018190385759 279.62042113992936265
24.009497869018190385759 3553.78197741826079437 24.009497869018190385759 277.98142791519109096
25.009497869018190385759 3562.86463022016323521 25.009497869018190385759 276.48341519485683193
26.009497869018204596614 3571.47751083114462745 26.009497869018204596614 275.13477937647854787
27.009497869018190385759 3579.66069323169858762 27.009497869018190385759 273.84993078599131877
28.009497869018190385759 3587.44978537451333978 28.009497869018190385759 272.65173236124820733
29.009497869018190385759 3594.87580415919592269 29.009497869018190385759 271.53682284129922664
30.009497869018190385759 3601.96659214113515191 30.009497869018190385759 270.47549880572921666
31.009497869018190385759 3608.74672629099404730 31.009497869018190385759 269.47090530393921881
32.009497869018190385759 3615.23833511683596953 32.009497869018190385759 268.51481398730527417
33.009497869018190385759 3621.46128584539792428 33.009497869018190385759 267.60712147627720014
34.009497869018190385759 3627.43342242847575108 34.009497869018190385759 266.72986566593209545
35.009497869018190385759 3633.17105717681170063 35.009497869018190385759 265.88343231319748838
36.009497869018190385759 3638.68883895361159375 36.009497869018190385759 265.06821283204902784
37.009497869018190385759 3644.00019968169908680 37.009497869018190385759 264.27942851293215654
38.009497869018190385759 3649.11742186107767338 38.009497869018190385759 263.51414682681871682
39.009497869018190385759 3654.05168131378422913 39.009497869018190385759 262.76419222333549897
40.009497869018190385759 3658.81330257151512342 40.009497869018190385759 262.02412451565311358
41.009497869018190385759 3663.41179292723472827 41.009497869018190385759 261.32184368589014412
42.009497869018190385759 3667.85587951862362388 42.009497869018190385759 260.61910354788579980
43.009497869018190385759 3672.15366045914151982 43.009497869018190385759 259.94713217028612462
44.009497869018218807469 3676.31264805364389758 44.009497869018218807469 259.27031284905751818
46.009497869018190385759 3684.24155162523720719 46.009497869018190385759 257.95679607133422451
48.009497869018190385759 3691.69266786802791103 48.009497869018190385759 256.69289077801903431
50.009497869018190385759 3698.70957284439873547 50.009497869018190385759 255.44165371414720767
52.009497869018190385759 3705.33037609943949064 52.009497869018190385759 254.22585641956399627
54.009497869018190385759 3711.58871665505967030 54.009497869018190385759 253.05137710543775142
56.009497869018190385759 3717.51424630219207756 56.009497869018190385759 251.90046134869501770
58.009497869018218807469 3723.13347810538925842 58.009497869018218807469 250.71719121160168697
60.009497869018190385759 3728.46991557558794739 60.009497869018190385759 249.61099409135957217
62.009497869018190385759 3733.54480344938565395 62.009497869018190385759 248.52457043340342580
64.009497869018190385759 3738.37711701556554544 64.009497869018190385759 247.45680288587820428
66.009497869018190385759 3742.98405893374183506 66.009497869018190385759 246.38951491411796724
68.009497869018190385759 3747.38125096741669040 68.009497869018190385759 245.32989305728730756
70.009497869018190385759 3751.58269151006379616 70.009497869018190385759 244.32154776326325418
72.009497869018218807469 3755.60139577740847017 72.009497869018218807469 243.31483241465159040
74.009497869018190385759 3759.44907359922899559 74.009497869018190385759 242.33785433716781199
76.009497869018190385759 3763.13643889709328505 76.009497869018190385759 241.38127888165524837
78.009497869018190385759 3766.67347919012081547 78.009497869018190385759 240.43790872569641692
80.009497869018190385759 3770.06920050738290229 80.009497869018190385759 239.52102310982090216
82.009497869018218807469 3773.33193114523010081 82.009497869018218807469 238.62767354580265078
84.009497869018190385759 3776.46948785100494206 84.009497869018190385759 237.76473025621763213
86.009497869018190385759 3779.48893333896012336 86.009497869018190385759 236.90510636959649560
88.009497869018190385759 3782.39681224629157441 88.009497869018190385759 236.08018545126438426
91.009497869018218807469 3786.56295966754169058 91.009497869018218807469 234.87174548572110666
94.009497869018190385759 3790.51078961256780531 94.009497869018190385759 233.71095720581459432
97.009497869018190385759 3794.25726795126274737 97.009497869018190385759 232.58902739642689994
99.504748934509109403734 3797.23109608906224821 99.504748934509109403734 231.86938496088367856
nan nan nan nan

