Time Pressure difference Time.1 Pressure.1 difference.1
(hr) (psi) (hr) (psi)
0.000200000000006639311 0.20140946081928462 0.000200000000006639311 0.16055641996687894
0.000399999999999067768 0.40270485108525284 0.000399999999999067768 0.42026097852366551
0.000600000000005707079 0.60390356688735614 0.000600000000005707079 0.61488334428882085
0.000799999999998135536 0.80501394085063960 0.000799999999998135536 0.81301763208531597
0.001007140329434719206 1.01321527959968161 0.001007140329434719206 1.02101169101721267
0.001267914553963578328 1.27520229805390994 0.001267914553963578328 1.28470734981647383
0.001596209851982166583 1.60483711202766943 0.001596209851982166583 1.61632916662505410
0.002009509145210586212 2.01953708650093455 0.002009509145210586212 2.03327916090408189
0.002529822128138903281 2.54117728962039369 0.002529822128138903281 2.55736629770578983
0.003184857364445292660 3.19721694585971594 0.003184857364445292660 3.21589471669339577
0.004009497869020606231 4.02210270971463935 0.004009497869020606231 4.04300545914889486
0.005047658755842121536 5.05901248989229924 0.005047658755842121536 5.08132224735368698
0.006354625877804664924 6.36201581787262249 0.006354625877804664924 6.38395698447095228
0.008000000000009777068 7.99873995871009402 0.008000000000009777068 8.01693294978629289
0.010071403294347192059 10.05364419385263020 0.010071403294347192059 10.06208037572609548
0.012679145539692626699 12.63201625043539345 0.012679145539692626699 12.62044575636577370
0.015962098519750611558 15.86481172137500550 0.015962098519750611558 15.81622594997710607
0.020095091452091651263 19.91445458440264815 0.020095091452091651263 19.80118050392567497
0.025298221281346400247 24.98169675699239178 0.025298221281346400247 24.75937545964825048
0.031848573644282396344 31.31358502645576891 0.031848573644282396344 30.91194780994794300
0.040094978690191851456 39.21248690536939563 0.040094978690191851456 38.52132302641415151
0.050476587558421215363 49.04595765716349121 0.050476587558421215363 47.89393234532128218
0.063546258777947173257 61.25695435261697241 0.063546258777947173257 59.37992010314513180
0.079999999999998294697 76.37347483967013773 0.079999999999998294697 73.36756394077958987
0.100714032943542974863 95.01606700006261974 0.100714032943542974863 90.26912751420519498
0.126791455396897845276 117.90076148084244778 0.126791455396897845276 110.49364536468080189
0.159620985197506115583 145.83378666512402333 0.159620985197506115583 134.40081783634889234
0.200950914520774404082 179.69292916901559920 0.200950914520774404082 162.22908722828088912
0.252982212813464002465 220.38871609061803269 0.252982212813464002465 193.99081362602149170
0.318485736442795541734 268.79706801373288272 0.318485736442795541734 229.32985542971150039
0.400949786901819038576 325.65455760920252715 0.400949786901819038576 267.34483377261307169
0.504765875584169521062 391.40967527062764475 0.504765875584169521062 306.39969928891946438
0.635462587779443310865 466.03159815687257606 0.635462587779443310865 343.97657658648728329
0.799999999999997157829 548.79573069606203717 0.799999999999997157829 376.67186548388934852
1.007140329435330272645 638.09451748266064897 1.007140329435330272645 400.47325323204790948
1.267914553968893187630 731.35615786201481114 1.267914553968893187630 411.43256194119908287
1.596209851975103788391 825.17133952043877798 1.596209851975103788391 406.70910033634379488
2.009509145207687197399 915.69584085789006167 2.009509145207687197399 385.70104018854658534
2.529822128134711078928 999.29477852455352149 2.529822128134711078928 350.74211901662908986
3.184857364427983839050 1073.25285708749402147 3.184857364427983839050 306.85457015362800348
4.009497869018190385759 1136.28423211683525551 4.009497869018190385759 260.42766331781990630
5.009497869018190385759 1187.05934834363119990 5.009497869018190385759 218.50900546277151193
6.009497869018190385759 1221.99830299234577069 6.009497869018190385759 189.10529288617746602
7.009497869018204596614 1247.70742893126953277 7.009497869018204596614 168.64941525645795650
8.009497869018190385759 1267.64791131557672088 8.009497869018190385759 154.25228639103855244
9.009497869018204596614 1283.76018565588333331 9.009497869018204596614 144.16246701983689604
10.009497869018190385759 1297.19788277652924080 10.009497869018190385759 136.96416910711374726
11.009497869018190385759 1308.68423637907608281 11.009497869018190385759 131.12532408415225404
12.009497869018190385759 1318.69311110104035834 12.009497869018190385759 126.67321769948662791
13.009497869018190385759 1327.54837095664379376 13.009497869018190385759 123.20638212037026449
14.009497869018204596614 1335.47919584363125978 14.009497869018204596614 120.45292694483234186
15.009497869018190385759 1342.65290957658066873 15.009497869018190385759 118.22462656432182371
16.009497869018190385759 1349.19507385729411908 16.009497869018190385759 116.38970716869408761
17.009497869018190385759 1355.20224146017994826 17.009497869018190385759 114.88918051131787479
18.009497869018190385759 1360.75023216998170028 18.009497869018190385759 113.57543258387373442
19.009497869018204596614 1365.89948181559998375 19.009497869018204596614 112.48883497535197762
20.009497869018190385759 1370.69919278797556217 20.009497869018190385759 111.49220201819430542
21.009497869018204596614 1375.19001467229827540 21.009497869018204596614 110.61425834072578311
22.009497869018190385759 1379.40565848532628479 22.009497869018190385759 109.83261368980353723
23.009497869018190385759 1383.37465811543575001 23.009497869018190385759 109.14216438042406310
24.009497869018190385759 1387.12135247615992739 24.009497869018190385759 108.50242831528426279
25.009497869018190385759 1390.66651695690256929 25.009497869018190385759 107.91772012444411644
26.009497869018204596614 1394.02831874376920496 26.009497869018204596614 107.39131711146420400
27.009497869018190385759 1397.22239961624359239 27.009497869018190385759 106.88981169388694070
28.009497869018190385759 1400.26265816231011740 28.009497869018190385759 106.42212779261626565
29.009497869018190385759 1403.16120097826706115 29.009497869018190385759 105.98695343160387949
30.009497869018190385759 1405.92889564218489795 30.009497869018190385759 105.57269469513946092
31.009497869018190385759 1408.57533510067833049 31.009497869018190385759 105.18057916702143473
32.009497869018190385759 1411.10915661011972588 32.009497869018190385759 104.80739513698044618
33.009497869018190385759 1413.53811479771979975 33.009497869018190385759 104.45310225364366374
34.009497869018190385759 1415.86917456079186195 34.009497869018190385759 104.11068950186381699
35.009497869018190385759 1418.10870296256189249 35.009497869018190385759 103.78030745128032208
36.009497869018190385759 1420.26241778511916891 36.009497869018190385759 103.46210887960621960
37.009497869018190385759 1422.33556181124367868 37.009497869018190385759 103.15422854859609458
38.009497869018190385759 1424.33292917803373712 38.009497869018190385759 102.85552182595179715
39.009497869018190385759 1426.25888206118656854 39.009497869018190385759 102.56279760975354520
40.009497869018190385759 1428.11745035855915376 40.009497869018190385759 102.27393247223879769
41.009497869018190385759 1429.91234498127528241 41.009497869018190385759 101.99981640642808145
42.009497869018190385759 1431.64697232823709783 42.009497869018190385759 101.72552106223929513
43.009497869018190385759 1433.32449327598737909 43.009497869018190385759 101.46323546001490001
44.009497869018218807469 1434.94784004674488642 44.009497869018218807469 101.19905759592246852
46.009497869018190385759 1438.04267015049572365 46.009497869018190385759 100.68636233752077658
48.009497869018190385759 1440.95100907106893828 48.009497869018190385759 100.19303156174291303
50.009497869018190385759 1443.68986552958790526 50.009497869018190385759 99.70464548197358567
52.009497869018190385759 1446.27411454203934227 52.009497869018190385759 99.23009234441046544
54.009497869018190385759 1448.71688617826521295 54.009497869018190385759 98.77166654760635822
56.009497869018190385759 1451.02975420182337984 56.009497869018190385759 98.32243813932934984
58.009497869018218807469 1453.22306726049077952 58.009497869018218807469 97.86058108581872261
60.009497869018190385759 1455.30599930531002428 60.009497869018190385759 97.42880737114357714
62.009497869018190385759 1457.28684263669561005 62.009497869018190385759 97.00475168529617065
64.009497869018190385759 1459.17300373833336380 64.009497869018190385759 96.58797790061697697
66.009497869018190385759 1460.97119719671854909 66.009497869018190385759 96.17139130518798140
68.009497869018190385759 1462.68752053889488707 68.009497869018190385759 95.75779696752179859
70.009497869018190385759 1464.32743765392820023 70.009497869018190385759 95.36421703017693119
72.009497869018218807469 1465.89602867440794398 72.009497869018218807469 94.97127329733174861
74.009497869018190385759 1467.39786421131179850 74.009497869018190385759 94.58993669289455397
76.009497869018190385759 1468.83712615015565461 76.009497869018190385759 94.21656369251704177
78.009497869018190385759 1470.21771284517626555 78.009497869018190385759 93.84834501873957890
80.009497869018190385759 1471.54313955288193938 80.009497869018190385759 93.49046385899460176
82.009497869018218807469 1472.81665699539621528 82.009497869018218807469 93.14176935174877769
84.009497869018190385759 1474.04131622571480875 84.009497869018190385759 92.80494310000752023
86.009497869018190385759 1475.21987398069086339 86.009497869018190385759 92.46941248619734210
88.009497869018190385759 1476.35488478000411305 88.009497869018190385759 92.14742722452577084
91.009497869018218807469 1477.98102619281462466 91.009497869018218807469 91.67574581862017169
94.009497869018190385759 1479.52195336490558475 94.009497869018190385759 91.22266394162440406
97.009497869018190385759 1480.98428845839589485 97.009497869018190385759 90.78474940312148078
99.504748934509109403734 1482.14504073153716490 99.504748934509109403734 90.50385671053847148
nan nan nan nan

