Time Pressure difference Time.1 Pressure.1 difference.1
(hr) (psi) (hr) (psi)
0.000200000000006639311 0.21222897730957677 0.000200000000006639311 0.16918135161799228
0.000399999999999067768 0.42433775630884085 0.000399999999999067768 0.44283698150220951
0.000600000000005707079 0.63634466758791652 0.000600000000005707079 0.64791426774235261
0.000799999999998135536 0.84825849139220288 0.000799999999998135536 0.85669213298246094
0.001007140329434719206 1.06764419957817691 0.001007140329434719206 1.07585942648507937
0.001267914553963578328 1.34370490084192995 0.001267914553963578328 1.35372055455868123
0.001596209851982166583 1.69104737011180051 0.001596209851982166583 1.70315676648507774
0.002009509145210586212 2.12802461594106740 0.002009509145210586212 2.14250490095264867
0.002529822128138903281 2.67768681344297699 0.002529822128138903281 2.69474547898750538
0.003184857364445292660 3.36896826939763416 0.003184857364445292660 3.38864939155709077
0.004009497869020606231 4.23816607841831861 0.004009497869020606231 4.26019170282218251
0.005047658755842121536 5.33077762364684382 0.005047658755842121536 5.35428583915367895
0.006354625877804664924 6.70377699817156447 0.006354625877804664924 6.72689682247972254
0.008000000000009777068 8.42842433665733104 0.008000000000009777068 8.44759463717150716
0.010071403294347192059 10.59371598939016756 0.010071403294347192059 10.60260535458741415
0.012679145539692626699 13.31059563578936000 0.012679145539692626699 13.29840358625319219
0.015962098519750611558 16.71705367334969594 0.015962098519750611558 16.66585792249653863
0.020095091452091651263 20.98423933480444603 0.020095091452091651263 20.86488028306217757
0.025298221281346400247 26.32368873154156930 0.025298221281346400247 26.08942455458803167
0.031848573644282396344 32.99571975928190426 0.031848573644282396344 32.57250698982117854
0.040094978690191851456 41.31894281350906795 0.040094978690191851456 40.59065029642813016
0.050476587558421215363 51.68065786188714839 0.050476587558421215363 50.46674689279722514
0.063546258777947173257 64.54761718974101825 0.063546258777947173257 62.56975052190911413
0.079999999999998294697 80.47618216576812245 0.079999999999998294697 77.30879671445782719
0.100714032943542974863 100.12023588849572775 0.100714032943542974863 95.11829552116662967
0.126791455396897845276 124.23427346121827952 0.126791455396897845276 116.42925441319671620
0.159620985197506115583 153.66783305622573153 0.159620985197506115583 141.62069648045027748
0.200950914520774404082 189.34585511611146558 0.200950914520774404082 170.94387290583316030
0.252982212813464002465 232.22777935168431895 0.252982212813464002465 204.41180774642759843
0.318485736442795541734 283.23657993182598602 0.318485736442795541734 241.64922782882823071
0.400949786901819038576 343.14839748077116610 0.400949786901819038576 281.70633310750554301
0.504765875584169521062 412.43581485128117947 0.504765875584169521062 322.85918726724980843
0.635462587779443310865 491.06635342976250058 0.635462587779443310865 362.45465714691840731
0.799999999999997157829 578.27649308882564583 0.799999999999997157829 396.90630453880902451
1.007140329435330272645 672.37232214082007431 1.007140329435330272645 421.98627923211654434
1.267914553968893187630 770.64388535047021378 1.267914553968893187630 433.53431113638743000
1.596209851975103788391 869.49872552773501866 1.596209851975103788391 428.55710985854403816
2.009509145207687197399 964.88611330066930805 2.009509145207687197399 406.42051755404702362
2.529822128134711078928 1052.97590299074863651 2.529822128134711078928 369.58363780677859722
3.184857364427983839050 1130.90693618723548752 3.184857364427983839050 323.33849334369887174
4.009497869018190385759 1197.32429417269850092 4.009497869018190385759 274.41757911588462093
5.009497869018190385759 1250.82699928771057785 5.009497869018190385759 230.24709253308566304
6.009497869018190385759 1287.64283992995137851 6.009497869018190385759 199.26384167758368449
7.009497869018204596614 1314.73303461766022338 7.009497869018204596614 177.70909458841643414
8.009497869018190385759 1335.74469993996694939 8.009497869018190385759 162.53856623849105745
9.009497869018204596614 1352.72250967872014371 9.009497869018204596614 151.90673177710084474
10.009497869018190385759 1366.88206656204533829 10.009497869018190385759 144.32174843931403529
11.009497869018190385759 1378.98545568869576528 11.009497869018190385759 138.16924645230918145
12.009497869018190385759 1389.53199723456714310 12.009497869018190385759 133.47797732797144477
13.009497869018190385759 1398.86295286753784239 13.009497869018190385759 129.82490677972899107
14.009497869018204596614 1407.21981380217357582 14.009497869018204596614 126.92353872286052763
15.009497869018190385759 1414.77889232243001061 15.009497869018190385759 124.57553625579366496
16.009497869018190385759 1421.67249518020662435 16.009497869018190385759 122.64204680998759045
17.009497869018190385759 1428.00236186919801185 17.009497869018190385759 121.06091334870271226
18.009497869018190385759 1433.84838513779072855 18.009497869018190385759 119.67659218548676847
19.009497869018204596614 1439.27424736767784452 19.009497869018204596614 118.53162363105271027
20.009497869018190385759 1444.33179405344526458 20.009497869018190385759 117.48145253983284420
21.009497869018204596614 1449.06385843568637029 21.009497869018204596614 116.55634659869863867
22.009497869018190385759 1453.50596245354654457 22.009497869018190385759 115.73271277231364706
23.009497869018190385759 1457.68817280758730703 23.009497869018190385759 115.00517321077741428
24.009497869018190385759 1461.63613587363965962 24.009497869018190385759 114.33107115866729941
25.009497869018190385759 1465.37174307442205645 25.009497869018190385759 113.71495302369110902
26.009497869018204596614 1468.91413751926097575 26.009497869018204596614 113.16027216290649449
27.009497869018190385759 1472.27980124852115296 27.009497869018190385759 112.63182637165772348
28.009497869018190385759 1475.48337946854985603 28.009497869018190385759 112.13901895502951334
29.009497869018190385759 1478.53762912999195578 29.009497869018190385759 111.68046745892144145
30.009497869018190385759 1481.45400160643475829 30.009497869018190385759 111.24395515396925305
31.009497869018190385759 1484.24260516807021304 31.009497869018190385759 110.83077556855565149
32.009497869018190385759 1486.91254105611801606 32.009497869018190385759 110.43754446252070522
33.009497869018190385759 1489.47198046867151788 33.009497869018190385759 110.06421931685592597
34.009497869018190385759 1491.92826245042147093 34.009497869018190385759 109.70341249163335817
35.009497869018190385759 1494.28809609691438709 35.009497869018190385759 109.35528264494413975
36.009497869018190385759 1496.55750634382411590 36.009497869018190385759 109.01999076156855040
37.009497869018190385759 1498.74201761102131059 37.009497869018190385759 108.69557140451240684
38.009497869018190385759 1500.84668157189503290 38.009497869018190385759 108.38081845296575523
39.009497869018190385759 1502.87609473389488812 39.009497869018190385759 108.07236938217832289
40.009497869018190385759 1504.83450347699408667 40.009497869018190385759 107.76798669595410729
41.009497869018190385759 1506.72581805878166961 41.009497869018190385759 107.47914538693868280
42.009497869018190385759 1508.55362786653063267 42.009497869018190385759 107.19011516888851077
43.009497869018190385759 1510.32126357593710964 43.009497869018190385759 106.91373984423057664
44.009497869018218807469 1512.03181492528892704 44.009497869018218807469 106.63537060727367134
46.009497869018190385759 1515.29289623296040190 46.009497869018190385759 106.09513386804876234
48.009497869018190385759 1518.35746823604381461 48.009497869018190385759 105.57530185224975128
50.009497869018190385759 1521.24345334729287060 50.009497869018190385759 105.06068015662505388
52.009497869018190385759 1523.96652565380168198 52.009497869018190385759 104.56063449514324759
54.009497869018190385759 1526.54052055974239011 54.009497869018190385759 104.07758251917198322
56.009497869018190385759 1528.97763355977258470 56.009497869018190385759 103.60422200631812473
58.009497869018218807469 1531.28876922076506162 58.009497869018218807469 103.11755444993295328
60.009497869018190385759 1533.48359430931441238 60.009497869018190385759 102.66258627951080484
62.009497869018190385759 1535.57084657998916555 62.009497869018190385759 102.21575074277076567
64.009497869018190385759 1537.55833038543414659 64.009497869018190385759 101.77658828370798005
66.009497869018190385759 1539.45312101307126795 66.009497869018190385759 101.33762306951625476
68.009497869018190385759 1541.26164354305046800 68.009497869018190385759 100.90181085420685747
70.009497869018190385759 1542.98965537913932167 70.009497869018190385759 100.48708819295502792
72.009497869018218807469 1544.64250955361148954 72.009497869018218807469 100.07303591247766406
74.009497869018190385759 1546.22502220613455393 74.009497869018190385759 99.67121428383516957
76.009497869018190385759 1547.74159986896574992 76.009497869018190385759 99.27778405616466273
78.009497869018190385759 1549.19635031206598796 78.009497869018190385759 98.88978504040740347
80.009497869018190385759 1550.59297762803657861 80.009497869018190385759 98.51267885968439941
82.009497869018218807469 1551.93490716457040435 82.009497869018218807469 98.14525282932206096
84.009497869018190385759 1553.22535387420361985 84.009497869018190385759 97.79033260537981675
86.009497869018190385759 1554.46722258295926622 86.009497869018190385759 97.43677761975339990
88.009497869018190385759 1555.66320503678116438 88.009497869018190385759 97.09749562914905141
91.009497869018218807469 1557.37670115358559997 91.009497869018218807469 96.60047596590142405
94.009497869018190385759 1559.00040540516897636 94.009497869018190385759 96.12305497981085978
97.009497869018190385759 1560.54129568963230668 97.009497869018190385759 95.66161610659493419
99.504748934509109403734 1561.76440242372723333 99.504748934509109403734 95.36563413713764703
nan nan nan nan

