Time Pressure difference Time.1 Pressure.1 difference.1
(hr) (psi) (hr) (psi)
0.000200000000006639311 0.25384250227223887 0.000200000000006639311 0.20235416566073586
0.000399999999999067768 0.50754123793802519 0.000399999999999067768 0.52966776218891731
0.000600000000005707079 0.76111813182084143 0.000600000000005707079 0.77495628102516689
0.000799999999998135536 1.01458368578283098 0.000799999999998135536 1.02467098258686518
0.001007140329434719206 1.27698619949546632 0.001007140329434719206 1.28681225520764397
0.001267914553963578328 1.60717645002662213 0.001267914553963578328 1.61915595741332430
0.001596209851982166583 2.02262528581999712 0.001596209851982166583 2.03710907363901450
0.002009509145210586212 2.54528434455696262 0.002009509145210586212 2.56260390113944236
0.002529822128138903281 3.20272344352983485 0.002529822128138903281 3.22312694545564371
0.003184857364445292660 4.02955028300501361 0.003184857364445292660 4.05309044872514779
0.004009497869020606231 5.06917903497093025 0.004009497869020606231 5.09552340925790492
0.005047658755842121536 6.37602813808740176 0.005047658755842121536 6.40414580761518337
0.006354625877804664924 8.01824307624442056 0.006354625877804664924 8.04589619943653211
0.008000000000009777068 10.08105655953131752 0.008000000000009777068 10.10398574249925296
0.010071403294347192059 12.67091520299608298 0.010071403294347192059 12.68154758097710300
0.012679145539692626699 15.92051634868923671 0.012679145539692626699 15.90593370120479655
0.015962098519750611558 19.99490733479081328 0.015962098519750611558 19.93367320141743093
0.020095091452091651263 25.09879606711904287 0.020095091452091651263 24.95603327974103891
0.025298221281346400247 31.48519632596148199 0.025298221281346400247 31.20499799666411889
0.031848573644282396344 39.46546873169012315 0.031848573644282396344 38.95927306625670639
0.040094978690191851456 49.42069630635398880 0.040094978690191851456 48.54960133494345342
0.050476587558421215363 61.81412018774736339 0.050476587558421215363 60.36218746001236468
0.063546258777947173257 77.20401271714122515 0.063546258777947173257 74.83832905561679638
0.079999999999998294697 96.25582572768344392 0.079999999999998294697 92.46738430552800025
0.100714032943542974863 119.75165469016155839 0.100714032943542974863 113.76894170178755417
0.126791455396897845276 148.59393492420227290 0.126791455396897845276 139.25851998441174828
0.159620985197506115583 183.79878071430920272 0.159620985197506115583 169.38946049622484225
0.200950914520774404082 226.47249337417255788 0.200950914520774404082 204.46227935795729991
0.252982212813464002465 277.76263804809298108 0.252982212813464002465 244.49255436337418246
0.318485736442795541734 338.77316423218400132 0.318485736442795541734 289.03142936389258466
0.400949786901819038576 410.43239698680480387 0.400949786901819038576 336.94286901093801134
0.504765875584169521062 493.30558246917951237 0.504765875584169521062 386.16491026082826465
0.635462587779443310865 587.35387371010801871 0.635462587779443310865 433.52419776396124007
0.799999999999997157829 691.66404075330137857 0.799999999999997157829 474.73107013465397586
1.007140329435330272645 804.21003236451042540 1.007140329435330272645 504.72868692468847485
1.267914553968893187630 921.75052953683689339 1.267914553968893187630 518.54103881018897937
1.596209851975103788391 1039.98867170964399520 1.596209851975103788391 512.58791571316055524
2.009509145207687197399 1154.07946884982015945 2.009509145207687197399 486.11081511366410268
2.529822128134711078928 1259.44176632226799484 2.529822128134711078928 442.05101776889205212
3.184857364427983839050 1352.65339426316404570 3.184857364427983839050 386.73819792089472003
4.009497869018190385759 1432.09376361832551083 4.009497869018190385759 328.22494756997963350
5.009497869018190385759 1496.08719522647743361 5.009497869018190385759 275.39358126506328972
6.009497869018190385759 1540.12182815151027171 6.009497869018190385759 238.33518318299229577
7.009497869018204596614 1572.52382571916223242 7.009497869018204596614 212.55401509594909726
8.009497869018190385759 1597.65542541839204205 8.009497869018190385759 194.40887334407750586
9.009497869018204596614 1617.96221745886123244 9.009497869018204596614 181.69236545888534806
10.009497869018190385759 1634.89815804479940198 10.009497869018190385759 172.62013048623836653
11.009497869018190385759 1649.37476072569506869 11.009497869018190385759 165.26125556060512167
12.009497869018190385759 1661.98925159428631559 12.009497869018190385759 159.65012974522076661
13.009497869018190385759 1673.14980637097664840 13.009497869018190385759 155.28077085418567549
14.009497869018204596614 1683.14526748887396934 14.009497869018204596614 151.81050709989202119
15.009497869018190385759 1692.18651826800464733 15.009497869018190385759 149.00211199222377445
16.009497869018190385759 1700.43180796063938942 16.009497869018190385759 146.68950696880867213
17.009497869018190385759 1708.00282498080537152 17.009497869018190385759 144.79834733864441887
18.009497869018190385759 1714.99512732167113427 18.009497869018190385759 143.14259065322929132
19.009497869018204596614 1721.48488410643813040 19.009497869018204596614 141.77311846067087231
20.009497869018190385759 1727.53410661294424244 20.009497869018190385759 140.51703146921181542
21.009497869018204596614 1733.19402675640913003 21.009497869018204596614 139.41053220628663212
22.009497869018190385759 1738.50713156208485088 22.009497869018190385759 138.42540155119866085
23.009497869018190385759 1743.50938316201632006 23.009497869018190385759 137.55520717367494399
24.009497869018190385759 1748.23145663317677645 24.009497869018190385759 136.74892824860205565
25.009497869018190385759 1752.69953583411256659 25.009497869018190385759 136.01200263617957376
26.009497869018204596614 1756.93651742499855573 26.009497869018204596614 135.34856082229993035
27.009497869018190385759 1760.96211521881923545 27.009497869018190385759 134.71649820923764196
28.009497869018190385759 1764.79384603101061657 28.009497869018190385759 134.12706188738826540
29.009497869018190385759 1768.44696817508838649 29.009497869018190385759 133.57859833321978726
30.009497869018190385759 1771.93517839201012976 30.009497869018190385759 133.05649538023774880
31.009497869018190385759 1775.27056696573094996 31.009497869018190385759 132.56230018984106778
32.009497869018190385759 1778.46401969457247105 32.009497869018190385759 132.09196494536789146
33.009497869018190385759 1781.52530997233293419 33.009497869018190385759 131.64543879074926735
34.009497869018190385759 1784.46321587207262382 34.009497869018190385759 131.21388552920853954
35.009497869018190385759 1787.28576199827011806 35.009497869018190385759 130.79749492826653068
36.009497869018190385759 1790.00015464653461095 36.009497869018190385759 130.39645953834670422
37.009497869018190385759 1792.61300145631958003 37.009497869018190385759 130.00842854265209780
38.009497869018190385759 1795.13034462520772649 38.009497869018190385759 129.63195932609627903
39.009497869018190385759 1797.55768193661947407 39.009497869018190385759 129.26303004535054697
40.009497869018190385759 1799.90009239405162589 40.009497869018190385759 128.89896447947452884
41.009497869018190385759 1802.16225297226856128 41.009497869018190385759 128.55348761967175619
42.009497869018190385759 1804.34845685996810971 42.009497869018190385759 128.20778480984702696
43.009497869018190385759 1806.46268780651325869 43.009497869018190385759 127.87721824506009227
44.009497869018218807469 1808.50864138122801705 44.009497869018218807469 127.54426680477831724
46.009497869018190385759 1812.40915039628589511 46.009497869018190385759 126.89810129315635834
48.009497869018190385759 1816.07461887056206251 48.009497869018190385759 126.27634143112224763
50.009497869018190385759 1819.52648341538974819 50.009497869018190385759 125.66081352066919408
52.009497869018190385759 1822.78349146827258664 52.009497869018190385759 125.06271969026937541
54.009497869018190385759 1825.86219125773095584 54.009497869018190385759 124.48495164057824525
56.009497869018190385759 1828.77716955188498105 56.009497869018190385759 123.91877534089030632
58.009497869018218807469 1831.54146906797382144 58.009497869018218807469 123.33668277344921194
60.009497869018190385759 1834.16665201702312515 60.009497869018190385759 122.79250515784626430
62.009497869018190385759 1836.66316943881065527 62.009497869018190385759 122.25805480998069186
64.009497869018190385759 1839.04035595120558355 64.009497869018190385759 121.73278206482719099
66.009497869018190385759 1841.30667415288917255 66.009497869018190385759 121.20774524000964334
68.009497869018190385759 1843.46980894364855885 68.009497869018190385759 120.68647964914937631
70.009497869018190385759 1845.53664662995083745 70.009497869018190385759 120.19043881902464932
72.009497869018218807469 1847.51358985824140291 72.009497869018218807469 119.69519981688505084
74.009497869018190385759 1849.40639910929803591 74.009497869018190385759 119.21458963360676364
76.009497869018190385759 1851.22034494131207794 76.009497869018190385759 118.74401622404008094
78.009497869018190385759 1852.96034056933376633 78.009497869018190385759 118.27993896989904954
80.009497869018190385759 1854.63081637863206197 80.009497869018190385759 117.82889040079899701
82.009497869018218807469 1856.23586935370167339 82.009497869018218807469 117.38942005075774944
84.009497869018190385759 1857.77934482992964149 84.009497869018190385759 116.96490762604254599
86.009497869018190385759 1859.26471720706899760 86.009497869018190385759 116.54202813343053435
88.009497869018190385759 1860.69520602438524293 88.009497869018190385759 116.13622026231554685
91.009497869018218807469 1862.74468177193580232 91.009497869018218807469 115.54174576313700129
94.009497869018190385759 1864.68675940618254572 94.009497869018190385759 114.97071281898945472
97.009497869018190385759 1866.52978504054044606 97.009497869018190385759 114.41879573533904590
99.504748934509109403734 1867.99271662445789843 99.504748934509109403734 114.06477808559600362
nan nan nan nan

