Time Pressure difference Time.1 Pressure.1 difference.1
(hr) (psi) (hr) (psi)
0.000200000000006639311 0.06741391043951261 0.000200000000006639311 0.05373995874924461
0.000399999999999067768 0.13478964023927884 0.000399999999999067768 0.14066586471246656
0.000600000000005707079 0.20213301205733822 0.000600000000005707079 0.20580806151815906
0.000799999999998135536 0.26944681491281741 0.000799999999998135536 0.27212573635913467
0.001007140329434719206 0.33913403986600910 0.001007140329434719206 0.34174358253055459
0.001267914553963578328 0.42682390967920131 0.001267914553963578328 0.43000535262452222
0.001596209851982166583 0.53715622344727787 0.001596209851982166583 0.54100273758937756
0.002009509145210586212 0.67596076035775077 0.002009509145210586212 0.68056038030260591
0.002529822128138903281 0.85055934074071027 0.002529822128138903281 0.85597797567838418
0.003184857364445292660 1.07014286204395437 0.003184857364445292660 1.07639451261225250
0.004009497869020606231 1.34624098961523075 0.004009497869020606231 1.35323736442586973
0.005047658755842121536 1.69330583339370344 0.005047658755842121536 1.70077314890763898
0.006354625877804664924 2.12943504647802628 0.006354625877804664924 2.13677899067002963
0.008000000000009777068 2.67726420105585827 0.008000000000009777068 2.68335359063094936
0.010071403294347192059 3.36506272604158285 0.010071403294347192059 3.36788640675129614
0.012679145539692626699 4.22807155489779696 0.012679145539692626699 4.22419878622160194
0.015962098519750611558 5.31012293153460924 0.015962098519750611558 5.29386075185184168
0.020095091452091651263 6.66558190634964731 0.020095091452091651263 6.62766785461975161
0.025298221281346400247 8.36164230296026290 0.025298221281346400247 8.28722897616325760
0.031848573644282396344 10.48099333530131183 0.031848573644282396344 10.34656104382555064
0.040094978690191851456 13.12484065840876291 0.040094978690191851456 12.89350068239481928
0.050476587558421215363 16.41620896789356365 0.050476587558421215363 16.03061371888852804
0.063546258777947173257 20.50336075438832495 0.063546258777947173257 19.87509722460642436
0.079999999999998294697 25.56302257030281666 0.079999999999998294697 24.55691189753366288
0.100714032943542974863 31.80289845869864251 0.100714032943542974863 30.21404681260587211
0.126791455396897845276 39.46265157003404767 0.126791455396897845276 36.98341022536837386
0.159620985197506115583 48.81213520609522760 0.159620985197506115583 44.98539770555480288
0.200950914520774404082 60.14515397805893571 0.200950914520774404082 54.29981845244112293
0.252982212813464002465 73.76647108818207244 0.252982212813464002465 64.93080951945347579
0.318485736442795541734 89.96926656658001775 0.318485736442795541734 76.75916648680426135
0.400949786901819038576 109.00007919977439030 0.400949786901819038576 89.48318816356058392
0.504765875584169521062 131.00902354099520153 0.504765875584169521062 102.55527124959699847
0.635462587779443310865 155.98578285415985079 0.635462587779443310865 115.13265579960936691
0.799999999999997157829 183.68782721645052902 0.799999999999997157829 126.07612026526875582
1.007140329435330272645 213.57709056237814593 1.007140329435330272645 134.04270046196643307
1.267914553968893187630 244.79276358191407326 1.267914553968893187630 137.71089883155838152
1.596209851975103788391 276.19371281469233281 1.596209851975103788391 136.12990548447871220
2.009509145207687197399 306.49323598962433834 2.009509145207687197399 129.09828204657964079
2.529822128134711078928 334.47469859706131956 2.529822128134711078928 117.39715553862377817
3.184857364427983839050 359.22926208300424378 3.184857364427983839050 102.70752141505730037
4.009497869018190385759 380.32654050191598571 4.009497869018190385759 87.16793689563394310
5.009497869018190385759 397.32151742080219492 5.009497869018190385759 73.13731174580368588
6.009497869018190385759 409.01596091892571394 6.009497869018190385759 63.29557323876188235
7.009497869018204596614 417.62108158443322736 7.009497869018204596614 56.44877122220287191
8.009497869018190385759 424.29537527504840000 8.009497869018190385759 51.62989751105009617
9.009497869018204596614 429.68832660382872746 9.009497869018204596614 48.25272656449085673
10.009497869018190385759 434.18606820206144903 10.009497869018190385759 45.84337891601740012
11.009497869018190385759 438.03067415993865552 11.009497869018190385759 43.88905475543938906
12.009497869018190385759 441.38075206274487527 12.009497869018190385759 42.39888691594386927
13.009497869018190385759 444.34470267557088619 13.009497869018190385759 41.23849980061980602
14.009497869018204596614 446.99923497245509907 14.009497869018204596614 40.31688877079099598
15.009497869018190385759 449.40035403183065910 15.009497869018190385759 39.57105269301681005
16.009497869018190385759 451.59008670430091570 16.009497869018190385759 38.95688545729016994
17.009497869018190385759 453.60075024080407502 17.009497869018190385759 38.45464306370556784
18.009497869018190385759 455.45772233788642325 18.009497869018190385759 38.01491751774285888
19.009497869018204596614 457.18123151679179728 19.009497869018204596614 37.65122162398144923
20.009497869018190385759 458.78774634638853058 20.009497869018190385759 37.31763786559395868
21.009497869018204596614 460.29087267957095264 21.009497869018204596614 37.02378068429251101
22.009497869018190385759 461.70189395583241776 22.009497869018190385759 36.76215582179374763
23.009497869018190385759 463.03036077417482375 23.009497869018190385759 36.53105501989399784
24.009497869018190385759 464.28441963045020202 24.009497869018190385759 36.31692848569431931
25.009497869018190385759 465.47102427069876285 25.009497869018190385759 36.12122037223129212
26.009497869018204596614 466.59625544729470903 26.009497869018204596614 35.94502762821736042
27.009497869018190385759 467.66534863188320514 27.009497869018190385759 35.77716837687950857
28.009497869018190385759 468.68295583118640479 28.009497869018190385759 35.62062955042114254
29.009497869018190385759 469.65312925305624958 29.009497869018190385759 35.47497201636328157
30.009497869018190385759 470.57950639263219728 30.009497869018190385759 35.33631516655493954
31.009497869018190385759 471.46529811221051887 31.009497869018190385759 35.20506988648237723
32.009497869018190385759 472.31339539429632168 32.009497869018190385759 35.08016118221246415
33.009497869018190385759 473.12639379593099420 33.009497869018190385759 34.96157554770717724
34.009497869018190385759 473.90662454307499729 34.009497869018190385759 34.84696632087177193
35.009497869018190385759 474.65621876019633874 35.009497869018190385759 34.73638389898225398
36.009497869018190385759 475.37709025039117705 36.009497869018190385759 34.62987941838059669
37.009497869018190385759 476.07099382938321241 37.009497869018190385759 34.52682856378629594
38.009497869018190385759 476.73953414636662274 38.009497869018190385759 34.42684821447146959
39.009497869018190385759 477.38417126841369509 39.009497869018190385759 34.32887027433899618
40.009497869018190385759 478.00625404563339771 40.009497869018190385759 34.23218400930306871
41.009497869018190385759 478.60702455984835524 41.009497869018190385759 34.14043441702758486
42.009497869018190385759 479.18762296936859002 42.009497869018190385759 34.04862481835282040
43.009497869018190385759 479.74910725353299767 43.009497869018190385759 33.96083500934382471
44.009497869018218807469 480.29245885862121668 44.009497869018218807469 33.87241183995752181
46.009497869018190385759 481.32833174458744452 46.009497869018190385759 33.70080722867431433
48.009497869018190385759 482.30178402791977987 48.009497869018190385759 33.53568411777344949
50.009497869018190385759 483.21850871031659835 50.009497869018190385759 33.37221604975149347
52.009497869018190385759 484.08348461944285646 52.009497869018190385759 33.21337801610432905
54.009497869018190385759 484.90110653074174252 54.009497869018190385759 33.05993797667815670
56.009497869018190385759 485.67524830722186380 56.009497869018190385759 32.90957640200693390
58.009497869018218807469 486.40937375247830232 58.009497869018218807469 32.75498788409634443
60.009497869018190385759 487.10655348648811014 60.009497869018190385759 32.61046858290342954
62.009497869018190385759 487.76956303129071557 62.009497869018190385759 32.46853258888012306
64.009497869018190385759 488.40088141654968013 64.009497869018190385759 32.32903392541312115
66.009497869018190385759 489.00275608650497361 66.009497869018190385759 32.18959791619928268
68.009497869018190385759 489.57722794896892538 68.009497869018190385759 32.05116344780688564
70.009497869018190385759 490.12612582631481928 70.009497869018190385759 31.91942801423277487
72.009497869018218807469 490.65115009350012087 72.009497869018218807469 31.78790552513996559
74.009497869018190385759 491.15383058312505682 74.009497869018190385759 31.66026806662998894
76.009497869018190385759 491.63556701720085584 76.009497869018190385759 31.53529611195818205
78.009497869018190385759 492.09766421677392145 78.009497869018190385759 31.41204936577647189
80.009497869018190385759 492.54129877596449205 80.009497869018190385759 31.29226269660562920
82.009497869018218807469 492.96755874639296735 82.009497869018218807469 31.17555089872583096
84.009497869018190385759 493.37746534827641653 84.009497869018190385759 31.06281153347359592
86.009497869018190385759 493.77194129105765796 86.009497869018190385759 30.95050583215695994
88.009497869018190385759 494.15184159991872548 88.009497869018190385759 30.84273390572970186
91.009497869018218807469 494.69612860172725277 91.009497869018218807469 30.68485707152163044
94.009497869018190385759 495.21189348164188004 94.009497869018190385759 30.53320569946933105
97.009497869018190385759 495.70135274847143592 97.009497869018190385759 30.38663099856545458
99.504748934509109403734 496.08986900518391394 99.504748934509109403734 30.29261319650254336
nan nan nan nan

