Time Pressure difference Time.1 Pressure.1 difference.1
(hr) (psi) (hr) (psi)
0.000200000000006639311 0.72074625235330769 0.000200000000006639311 0.57455313922031881
0.000399999999999067768 1.44108430181747504 0.000399999999999067768 1.50390912149377831
0.000600000000005707079 2.16107640051425776 0.000600000000005707079 2.20036767005834255
0.000799999999998135536 2.88075236684567759 0.000799999999998135536 2.90939367514827962
0.001007140329434719206 3.62580343856745557 0.001007140329434719206 3.65370299347481842
0.001267914553963578328 4.56332723187886824 0.001267914553963578328 4.59734117744242266
0.001596209851982166583 5.74292950006595770 0.001596209851982166583 5.78405395990618576
0.002009509145210586212 7.22693849962731072 0.002009509145210586212 7.27611468323526900
0.002529822128138903281 9.09363443310438413 0.002529822128138903281 9.15156699922815697
0.003184857364445292660 11.44128047567980921 0.003184857364445292660 11.50811911015074784
0.004009497869020606231 14.39314440749123136 0.004009497869020606231 14.46794515546670645
0.005047658755842121536 18.10373891011045799 0.005047658755842121536 18.18357465375327564
0.006354625877804664924 22.76655247222186418 0.006354625877804664924 22.84506920889192116
0.008000000000009777068 28.62359010017744865 0.008000000000009777068 28.68869394427656871
0.010071403294347192059 35.97709037965445589 0.010071403294347192059 36.00727936106941485
0.012679145539692626699 45.20382674742582907 0.012679145539692626699 45.16242159096182007
0.015962098519750611558 56.77242541616013938 0.015962098519750611558 56.59856063090981593
0.020095091452091651263 71.26412260368881846 0.020095091452091651263 70.85876990247781748
0.025298221281346400247 89.39731153535294084 0.025298221281346400247 88.60173201675779353
0.031848573644282396344 112.05605220211030826 0.031848573644282396344 110.61878844386330911
0.040094978690191851456 140.32237049607394397 0.040094978690191851456 137.84903198708533978
0.050476587558421215363 175.51156748389908557 0.050476587558421215363 171.38903062416625289
0.063546258777947173257 219.20877053457147099 0.063546258777947173257 212.49178020381685883
0.079999999999998294697 273.30342649237337582 0.079999999999998294697 262.54673707733525134
0.100714032943542974863 340.01617364485218786 0.100714032943542974863 323.02919184835411670
0.126791455396897845276 421.90933653888254184 0.126791455396897845276 395.40287969344450403
0.159620985197506115583 521.86801343800584618 0.159620985197506115583 480.95499275321549248
0.200950914520774404082 643.03337462961781057 0.200950914520774404082 580.53879975079019005
0.252982212813464002465 788.66375262179849415 0.252982212813464002465 694.19853140551481374
0.318485736442795541734 961.89364008220115920 0.318485736442795541734 820.65973058731481160
0.400949786901819038576 1165.35887144450134656 0.400949786901819038576 956.69680184745016049
0.504765875584169521062 1400.66437514199810721 0.504765875584169521062 1096.45512224877802510
0.635462587779443310865 1667.69985125558559957 0.635462587779443310865 1230.92444348718163383
0.799999999999997157829 1963.87232554871798129 0.799999999999997157829 1347.92494012003385251
1.007140329435330272645 2283.42914107431488446 1.007140329435330272645 1433.09850123534488375
1.267914553968893187630 2617.16707730787129549 1.267914553968893187630 1472.31652331024133673
1.596209851975103788391 2952.88586787066105899 1.596209851975103788391 1455.41355740195740509
2.009509145207687197399 3276.82891811129275084 2.009509145207687197399 1380.23595373256739549
2.529822128134711078928 3575.98875290191517706 2.529822128134711078928 1255.13502094380510243
3.184857364427983839050 3840.64865387508234562 3.184857364427983839050 1098.08288327703235154
4.009497869018190385759 4066.20721079826216737 4.009497869018190385759 931.94362162492575408
5.009497869018190385759 4247.90659365944065939 5.009497869018190385759 781.93718483785175977
6.009497869018190385759 4372.93607599740244041 6.009497869018190385759 676.71563487367643575
7.009497869018204596614 4464.93650187801449647 7.009497869018204596614 603.51402319046519551
8.009497869018190385759 4536.29376528632019472 8.009497869018190385759 551.99371906875785498
9.009497869018204596614 4593.95173875204545766 9.009497869018204596614 515.88717536850720080
10.009497869018190385759 4642.03870448129964643 10.009497869018190385759 490.12797705272924986
11.009497869018190385759 4683.14276324082584324 11.009497869018190385759 469.23359775568530949
12.009497869018190385759 4718.95964551033466705 12.009497869018190385759 453.30167986675797920
13.009497869018190385759 4750.64830267955949239 13.009497869018190385759 440.89556576958949563
14.009497869018204596614 4779.02885785365560878 14.009497869018204596614 431.04229229018517344
15.009497869018190385759 4804.70008137735021592 15.009497869018190385759 423.06829175496977768
16.009497869018190385759 4828.11129735709346278 16.009497869018190385759 416.50200995078137112
17.009497869018190385759 4849.60802109304131591 17.009497869018190385759 411.13235670579035741
18.009497869018190385759 4869.46157462481096445 18.009497869018190385759 406.43109346130017911
19.009497869018204596614 4887.88822831532979762 19.009497869018204596614 402.54269044898683205
20.009497869018190385759 4905.06405353052377905 20.009497869018190385759 398.97622705684409539
21.009497869018204596614 4921.13451531491955393 21.009497869018204596614 395.83449472342363151
22.009497869018190385759 4936.22024895988670323 22.009497869018190385759 393.03736965028872419
23.009497869018190385759 4950.42336333870844101 23.009497869018190385759 390.56658823738524688
24.009497869018190385759 4963.83095555518411857 24.009497869018190385759 388.27728479767012004
25.009497869018190385759 4976.51737059784136363 25.009497869018190385759 386.18489928830001645
26.009497869018204596614 4988.54761996737306617 26.009497869018204596614 384.30115958069421822
27.009497869018190385759 4999.97767796556581743 27.009497869018190385759 382.50651622688468478
28.009497869018190385759 5010.85728086182007246 28.009497869018190385759 380.83290358845317769
29.009497869018190385759 5021.22975226107064373 29.009497869018190385759 379.27562674284700961
30.009497869018190385759 5031.13398192616659799 30.009497869018190385759 377.79319671897007993
31.009497869018190385759 5040.60429833548550960 31.009497869018190385759 376.39000644066351242
32.009497869018190385759 5049.67161001803196996 32.009497869018190385759 375.05456276291346285
33.009497869018190385759 5058.36366700341022806 33.009497869018190385759 373.78672128783227890
34.009497869018190385759 5066.70539326299967797 34.009497869018190385759 372.56139301080190762
35.009497869018190385759 5074.71957341148208798 35.009497869018190385759 371.37911674714359833
36.009497869018190385759 5082.42666860294775688 36.009497869018190385759 370.24043921379751509
37.009497869018190385759 5089.84544020056637237 37.009497869018190385759 369.13868563257943833
38.009497869018190385759 5096.99304408337684436 38.009497869018190385759 368.06975992262096042
39.009497869018190385759 5103.88509035118840984 39.009497869018190385759 367.02224268614287439
40.009497869018190385759 5110.53600004343934415 40.009497869018190385759 365.98853521057355920
41.009497869018190385759 5116.95905270158891653 41.009497869018190385759 365.00760747093681857
42.009497869018190385759 5123.16643816633586539 42.009497869018190385759 364.02603818140175918
43.009497869018190385759 5129.16946767357512726 43.009497869018190385759 363.08744590236739214
44.009497869018218807469 5134.97863421686452057 44.009497869018218807469 362.14208214078041692
46.009497869018190385759 5146.05352210879846098 46.009497869018190385759 360.30739580286359569
48.009497869018190385759 5156.46104898985868203 48.009497869018190385759 358.54200550607168907
50.009497869018190385759 5166.26208077943465469 50.009497869018190385759 356.79430986524431546
52.009497869018190385759 5175.50984790663642343 52.009497869018190385759 355.09611557958453432
54.009497869018190385759 5184.25133648916380480 54.009497869018190385759 353.45563318275662823
56.009497869018190385759 5192.52796338338430360 56.009497869018190385759 351.84806375479018925
58.009497869018218807469 5200.37676135365654773 58.009497869018218807469 350.19530256330170914
60.009497869018190385759 5207.83055949751451408 60.009497869018190385759 348.65019497277000937
62.009497869018190385759 5214.91903191478650115 62.009497869018190385759 347.13270644407634791
64.009497869018190385759 5221.66868279916070605 64.009497869018190385759 345.64127628898478406
66.009497869018190385759 5228.10354038164496160 66.009497869018190385759 344.15051599294537255
68.009497869018190385759 5234.24542473835936107 68.009497869018190385759 342.67046352840452528
70.009497869018190385759 5240.11388846405770892 70.009497869018190385759 341.26203284352573064
72.009497869018218807469 5245.72711087618699821 72.009497869018218807469 339.85587882433594586
74.009497869018190385759 5251.10144796279382717 74.009497869018190385759 338.49126105804413100
76.009497869018190385759 5256.25186465303704608 76.009497869018190385759 337.15514114760230768
78.009497869018190385759 5261.19231125587884890 78.009497869018190385759 335.83746605879531444
80.009497869018190385759 5265.93536716031212563 80.009497869018190385759 334.55678389210464729
82.009497869018218807469 5270.49266511575660843 82.009497869018218807469 333.30897627526627502
84.009497869018190385759 5274.87512335317751422 84.009497869018190385759 332.10363935787813716
86.009497869018190385759 5279.09260688957965613 86.009497869018190385759 330.90293889688803119
88.009497869018190385759 5283.15425710530416836 88.009497869018190385759 329.75071064644350827
91.009497869018218807469 5288.97342430982371297 91.009497869018218807469 328.06279288812010009
94.009497869018190385759 5294.48765129755429371 94.009497869018190385759 326.44143377457328370
97.009497869018190385759 5299.72063555773092958 97.009497869018190385759 324.87435116984795513
99.504748934509109403734 5303.87440195665749343 99.504748934509109403734 323.86917318729882709
nan nan nan nan

