Time Pressure difference Time.1 Pressure.1 difference.1
(hr) (psi) (hr) (psi)
0.000200000000006639311 0.65166780091528864 0.000200000000006639311 0.51948626790936459
0.000399999999999067768 1.30296652231302890 0.000399999999999067768 1.35977002555384341
0.000600000000005707079 1.95395244988760242 0.000600000000005707079 1.98947792800887102
0.000799999999998135536 2.60465254415723457 0.000799999999998135536 2.63054878480496868
0.001007140329434719206 3.27829571870475478 0.001007140329434719206 3.30352129779536119
0.001267914553963578328 4.12596446023227958 0.001267914553963578328 4.15671840870371501
0.001596209851982166583 5.19251015999035292 0.001596209851982166583 5.22969313003065039
0.002009509145210586212 6.53428735012492456 0.002009509145210586212 6.57875034292519167
0.002529822128138903281 8.22207362716019929 0.002529822128138903281 8.27445376489104589
0.003184857364445292660 10.34471433309155941 0.003184857364445292660 10.40514695525177302
0.004009497869020606231 13.01366289961389811 0.004009497869020606231 13.08129452278340743
0.005047658755842121536 16.36862305613913549 0.005047658755842121536 16.44080710610717588
0.006354625877804664924 20.58453878262092474 0.006354625877804664924 20.65553024314361963
0.008000000000009777068 25.88022061020662790 0.008000000000009777068 25.93908470943250677
0.010071403294347192059 32.52893968506863587 0.010071403294347192059 32.55623526526252931
0.012679145539692626699 40.87135836401203903 0.012679145539692626699 40.83392160014215477
0.015962098519750611558 51.33118833816789106 0.015962098519750611558 51.17398726790113273
0.020095091452091651263 64.43395842804659424 0.020095091452091651263 64.06745592799092037
0.025298221281346400247 80.82920892861588413 0.025298221281346400247 80.10988010291148953
0.031848573644282396344 101.31626890791267215 0.031848573644282396344 100.01675675698032819
0.040094978690191851456 126.87345969795138956 0.040094978690191851456 124.63717326314990430
0.050476587558421215363 158.69002002297111176 0.050476587558421215363 154.96259928258913874
0.063546258777947173257 198.19915395908714117 0.063546258777947173257 192.12593983786211993
0.079999999999998294697 247.10921817959390978 0.079999999999998294697 237.38348167615876605
0.100714032943542974863 307.42801843408693685 0.100714032943542974863 292.06911918852347299
0.126791455396897845276 381.47229851032909664 0.126791455396897845276 357.50629884522754764
0.159620985197506115583 471.85064032558722147 0.159620985197506115583 434.85884448702972804
0.200950914520774404082 581.40315512123629560 0.200950914520774404082 524.89824504026410068
0.252982212813464002465 713.07588718576005249 0.252982212813464002465 627.66449202138358032
0.318485736442795541734 869.70291014360668669 0.318485736442795541734 742.00527603910791186
0.400949786901819038576 1053.66743226448556925 0.400949786901819038576 865.00415224775224488
0.504765875584169521062 1266.42056089628681548 0.504765875584169521062 991.36762207943763769
0.635462587779443310865 1507.86256759021171092 0.635462587779443310865 1112.94900606289070311
0.799999999999997157829 1775.64899642568843774 0.799999999999997157829 1218.73582923093135832
1.007140329435330272645 2064.57854210298910402 1.007140329435330272645 1295.74610446567544386
1.267914553968893187630 2366.33004795850229129 1.267914553968893187630 1331.20535537173100238
1.596209851975103788391 2669.87255720869234210 1.596209851975103788391 1315.92241968329426527
2.009509145207687197399 2962.76794789970244892 2.009509145207687197399 1247.95005978360313748
2.529822128134711078928 3233.25541977159264206 2.529822128134711078928 1134.83917020669673548
3.184857364427983839050 3472.54953346904085265 3.184857364427983839050 992.83937367888711378
4.009497869018190385759 3676.48989151852083523 4.009497869018190385759 842.62338999112807869
5.009497869018190385759 3840.77466840108763790 5.009497869018190385759 706.99401354276903930
6.009497869018190385759 3953.82095554961506423 6.009497869018190385759 611.85720797469821264
7.009497869018204596614 4037.00378864952108415 7.009497869018204596614 545.67145514796106909
8.009497869018190385759 4101.52196099213415437 8.009497869018190385759 499.08900927348423693
9.009497869018204596614 4153.65382383701125946 9.009497869018204596614 466.44302345674498156
10.009497869018190385759 4197.13199261992667743 10.009497869018190385759 443.15266285483488673
11.009497869018190385759 4234.29651687940713600 11.009497869018190385759 424.26086263591406578
12.009497869018190385759 4266.68060327320108627 12.009497869018190385759 409.85590685412410039
13.009497869018190385759 4295.33212586385161558 13.009497869018190385759 398.63883140599142507
14.009497869018204596614 4320.99260473373306013 14.009497869018204596614 389.72992478431291374
15.009497869018190385759 4344.20342230769620073 15.009497869018190385759 382.52017603249578315
16.009497869018190385759 4365.37083814157631423 16.009497869018190385759 376.58322608713831414
17.009497869018190385759 4384.80725232777240308 17.009497869018190385759 371.72821628248715342
18.009497869018190385759 4402.75798259956900438 18.009497869018190385759 367.47753600484765002
19.009497869018204596614 4419.41857132898712734 19.009497869018204596614 363.96180903182067823
20.009497869018190385759 4434.94821468175541668 20.009497869018190385759 360.73716603407495995
21.009497869018204596614 4449.47843590251886781 21.009497869018204596614 357.89654661482762776
22.009497869018190385759 4463.11830823971286009 22.009497869018190385759 355.36750627733954389
23.009497869018190385759 4475.96015415035617480 23.009497869018190385759 353.13353185897534559
24.009497869018190385759 4488.08272309435233183 24.009497869018190385759 351.06364202837841049
25.009497869018190385759 4499.55323461675470753 25.009497869018190385759 349.17179693156919029
26.009497869018204596614 4510.43046932384822867 26.009497869018204596614 347.46860040610107490
27.009497869018190385759 4520.76503677487107780 27.009497869018190385759 345.84596097650194224
28.009497869018190385759 4530.60190636813513265 28.009497869018190385759 344.33275232073771122
29.009497869018190385759 4539.98024944621010945 29.009497869018190385759 342.92472949151175499
30.009497869018190385759 4548.93522846211089927 30.009497869018190385759 341.58437994336446764
31.009497869018190385759 4557.49788175136836799 31.009497869018190385759 340.31567556932975549
32.009497869018190385759 4565.69615547819739731 32.009497869018190385759 339.10822476138707771
33.009497869018190385759 4573.55514002733343659 33.009497869018190385759 337.96189696116937284
34.009497869018190385759 4581.09737058305836399 34.009497869018190385759 336.85400776842715231
35.009497869018190385759 4588.34344801523093338 35.009497869018190385759 335.78504435682850726
36.009497869018190385759 4595.31187242044779850 36.009497869018190385759 334.75550104434580589
37.009497869018190385759 4602.01960701737152704 37.009497869018190385759 333.75934278326752747
38.009497869018190385759 4608.48216341487750469 38.009497869018190385759 332.79286607322421787
39.009497869018190385759 4614.71365559466539708 39.009497869018190385759 331.84574598527700573
40.009497869018190385759 4620.72712244112335611 40.009497869018190385759 330.91111208992970205
41.009497869018190385759 4626.53457074520065362 41.009497869018190385759 330.02419936459995142
42.009497869018190385759 4632.14702203722936247 42.009497869018190385759 329.13670657741062087
43.009497869018190385759 4637.57470345081947016 43.009497869018190385759 328.28807175699034815
44.009497869018218807469 4642.82710230000429874 44.009497869018218807469 327.43331445292267290
46.009497869018190385759 4652.84054019767881982 46.009497869018190385759 325.77446987718502669
48.009497869018190385759 4662.25057893655775842 48.009497869018190385759 324.17827980514334740
50.009497869018190385759 4671.11225086639296933 50.009497869018190385759 322.59808848093103961
52.009497869018190385759 4679.47368465461386222 52.009497869018190385759 321.06265415567514765
54.009497869018190385759 4687.37736313050299941 54.009497869018190385759 319.57940044122216250
56.009497869018190385759 4694.86073363647847145 56.009497869018190385759 318.12590521940035160
58.009497869018218807469 4701.95727960729072947 58.009497869018218807469 316.63154954626475046
60.009497869018190385759 4708.69668370271756430 60.009497869018190385759 315.23452963473317823
62.009497869018190385759 4715.10577596914390597 62.009497869018190385759 313.86248169250785622
64.009497869018190385759 4721.20852035997995699 64.009497869018190385759 312.51399461232688282
66.009497869018190385759 4727.02664216954781295 66.009497869018190385759 311.16611318992636370
68.009497869018190385759 4732.57987017336654390 68.009497869018190385759 309.82791332879992297
70.009497869018190385759 4737.88588298770991969 70.009497869018190385759 308.55447080425017248
72.009497869018218807469 4742.96111757050130109 72.009497869018218807469 307.28308674301968040
74.009497869018190385759 4747.82036230354242434 74.009497869018190385759 306.04925797742328086
76.009497869018190385759 4752.47714783294213703 76.009497869018190385759 304.84119574892912397
78.009497869018190385759 4756.94408742881387298 78.009497869018190385759 303.64981053583915127
80.009497869018190385759 4761.23255483432421897 80.009497869018190385759 302.49187273385444996
82.009497869018218807469 4765.35306788179877913 82.009497869018218807469 301.36365868768302789
84.009497869018190385759 4769.31549836667272757 84.009497869018190385759 300.27384482357808793
86.009497869018190385759 4773.12876581355703820 86.009497869018190385759 299.18822304418392832
88.009497869018190385759 4776.80113546588017925 88.009497869018190385759 298.14642775538709429
91.009497869018218807469 4782.06257648336304555 91.009497869018218807469 296.62028502470906233
94.009497869018190385759 4787.04830365587258711 94.009497869018190385759 295.15432176153683486
97.009497869018190385759 4791.77974323522357736 97.009497869018190385759 293.73743298613271691
99.504748934509109403734 4795.53540038344453933 99.504748934509109403734 292.82859423285793810
nan nan nan nan

