Time Pressure difference Time.1 Pressure.1 difference.1
(hr) (psi) (hr) (psi)
0.000200000000006639311 0.31126916672071259 0.000200000000006639311 0.24813264903972199
0.000399999999999067768 0.62236204258629990 0.000399999999999067768 0.64949423953657404
0.000600000000005707079 0.93330551246227766 0.000600000000005707079 0.95027425935545051
0.000799999999998135536 1.24411245404189774 0.000799999999998135536 1.25648179504094282
0.001007140329434719206 1.56587815938132602 0.001007140329434719206 1.57792715884478296
0.001267914553963578328 1.97076718790149696 0.001267914553963578328 1.98545681335273239
0.001596209851982166583 2.48020280949730765 0.001596209851982166583 2.49796325751144721
0.002009509145210586212 3.12110277004689873 0.002009509145210586212 3.14234052139721776
0.002529822128138903281 3.92727399304969893 0.002529822128138903281 3.95229336918167462
0.003184857364445292660 4.94115346178319648 0.003184857364445292660 4.97001910761706700
0.004009497869020606231 6.21597691501353466 0.004009497869020606231 6.24828116413920043
0.005047658755842121536 7.81847384801537082 0.005047658755842121536 7.85295256409206210
0.006354625877804664924 9.83220626398496123 0.006354625877804664924 9.86611533963692544
0.008000000000009777068 12.36168902709741779 0.008000000000009777068 12.38980546785154324
0.010071403294347192059 15.53745011777224683 0.010071403294347192059 15.55048785339487516
0.012679145539692626699 19.52220693249106276 0.012679145539692626699 19.50432525983801213
0.015962098519750611558 24.51834538757955428 0.015962098519750611558 24.44325828632825548
0.020095091452091651263 30.77688435771318964 0.020095091452091651263 30.60182441515786422
0.025298221281346400247 38.60807680626096783 0.025298221281346400247 38.26448934672911406
0.031848573644282396344 48.39372231361345911 0.031848573644282396344 47.77301025173773041
0.040094978690191851456 60.60111612647996537 0.040094978690191851456 59.53295376809459327
0.050476587558421215363 75.79829819743449093 0.050476587558421215363 74.01789544276925881
0.063546258777947173257 94.66983854495350670 0.063546258777947173257 91.76896743213337970
0.079999999999998294697 118.03173384312658811 0.079999999999998294697 113.38623518120482458
0.100714032943542974863 146.84301263646040070 0.100714032943542974863 139.50683343104441292
0.126791455396897845276 182.21026774312016983 0.126791455396897845276 170.76290647268851330
0.159620985197506115583 225.37948848246441003 0.159620985197506115583 207.71035483799377630
0.200950914520774404082 277.70725417029683513 0.200950914520774404082 250.71768026188860290
0.252982212813464002465 340.60074304913695187 0.252982212813464002465 299.80398469476045875
0.318485736442795541734 415.41365056667808631 0.318485736442795541734 354.41886748228142778
0.400949786901819038576 503.28431630513114214 0.400949786901819038576 413.16928855767480400
0.504765875584169521062 604.90586178187913902 0.504765875584169521062 473.52680799196639327
0.635462587779443310865 720.23065169698486443 0.635462587779443310865 531.60016381548030040
0.799999999999997157829 848.13885653027773515 0.799999999999997157829 582.12924665691991777
1.007140329435330272645 986.14607247320282113 1.007140329435330272645 618.91320954043771962
1.267914553968893187630 1130.27769851402285894 1.267914553968893187630 635.85032300003490491
1.596209851975103788391 1275.26479744067796673 1.596209851975103788391 628.55042779253130902
2.009509145207687197399 1415.16629950764831847 2.009509145207687197399 596.08342574593564223
2.529822128134711078928 1544.36465771976463657 2.529822128134711078928 542.05600211660862442
3.184857364427983839050 1658.66350640794553328 3.184857364427983839050 474.22979023742504978
4.009497869018190385759 1756.07563145329118015 4.009497869018190385759 402.47911603663078495
5.009497869018190385759 1834.54626562197540807 5.009497869018190385759 337.69573571519231336
6.009497869018190385759 1888.54283189726174896 6.009497869018190385759 292.25363446045611227
7.009497869018204596614 1928.27511743923491849 7.009497869018204596614 260.64000539634412235
8.009497869018190385759 1959.09222657861869266 8.009497869018190385759 238.38989714978686152
9.009497869018204596614 1983.99301419545622593 9.009497869018204596614 222.79653993974793025
10.009497869018190385759 2004.76036429099985980 10.009497869018190385759 211.67189771099393170
11.009497869018190385759 2022.51200167675392549 11.009497869018190385759 202.64822813005349644
12.009497869018190385759 2037.98026261069867360 12.009497869018190385759 195.76770008102477050
13.009497869018190385759 2051.66566420572235074 13.009497869018190385759 190.40986327693588009
14.009497869018204596614 2063.92239357652078979 14.009497869018204596614 186.15452346019543484
15.009497869018190385759 2075.00904207289704573 15.009497869018190385759 182.71078650849736391
16.009497869018190385759 2085.11965959763620049 16.009497869018190385759 179.87500198798178985
17.009497869018190385759 2094.40346407482411450 17.009497869018190385759 177.55600624476394955
18.009497869018190385759 2102.97763153542655346 18.009497869018190385759 175.52566853871394414
19.009497869018204596614 2110.93556280592747498 19.009497869018204596614 173.84638132554397316
20.009497869018190385759 2118.35329794505287282 20.009497869018190385759 172.30613039175483436
21.009497869018204596614 2125.29365903900634294 21.009497869018204596614 170.94930834475800907
22.009497869018190385759 2131.80874493186820473 22.009497869018190385759 169.74131206606003275
23.009497869018190385759 2137.94265345112808063 23.009497869018190385759 168.67425404247353526
24.009497869018190385759 2143.73299928133837966 24.009497869018190385759 167.68557103271203346
25.009497869018190385759 2149.21188984248556153 25.009497869018190385759 166.78193110141361899
26.009497869018204596614 2154.40740169491618872 26.009497869018204596614 165.96839917226287753
27.009497869018190385759 2159.34370849783090307 27.009497869018190385759 165.19334534509800960
28.009497869018190385759 2164.04228988720660709 28.009497869018190385759 164.47056113404329381
29.009497869018190385759 2168.52185605732120166 29.009497869018190385759 163.79801893975144367
30.009497869018190385759 2172.79920235610416057 30.009497869018190385759 163.15780089248826812
31.009497869018190385759 2176.88915424650303976 31.009497869018190385759 162.55180416721495362
32.009497869018190385759 2180.80506021563951435 32.009497869018190385759 161.97506521169705707
33.009497869018190385759 2184.55890468738516574 33.009497869018190385759 161.42752166472203612
34.009497869018190385759 2188.16145159395136943 34.009497869018190385759 160.89833832106228328
35.009497869018190385759 2191.62254094214085853 35.009497869018190385759 160.38774787925140686
36.009497869018190385759 2194.95100930427497588 36.009497869018190385759 159.89598645030054058
37.009497869018190385759 2198.15495916283134648 37.009497869018190385759 159.42017139328487474
38.009497869018190385759 2201.24179963877941191 38.009497869018190385759 158.95853373101644479
39.009497869018190385759 2204.21827227637913893 39.009497869018190385759 158.50614176052818038
40.009497869018190385759 2207.09060509959135743 40.009497869018190385759 158.05971382073269638
41.009497869018190385759 2209.86453315288008525 41.009497869018190385759 157.63607990084338439
42.009497869018190385759 2212.54532087091183712 42.009497869018190385759 157.21216891436981200
43.009497869018190385759 2215.13785324470791238 43.009497869018190385759 156.80681843820482868
44.009497869018218807469 2217.64666189042418409 44.009497869018218807469 156.39854355733473312
46.009497869018190385759 2222.42958114167549866 46.009497869018190385759 155.60619633980482490
48.009497869018190385759 2226.92428674619759477 48.009497869018190385759 154.84377604996629429
50.009497869018190385759 2231.15706490936281625 50.009497869018190385759 154.08899756305009987
52.009497869018190385759 2235.15090429224255786 52.009497869018190385759 153.35559725954342980
54.009497869018190385759 2238.92609682095553580 54.009497869018190385759 152.64712102811890304
56.009497869018190385759 2242.50052922099985153 56.009497869018190385759 151.95285894259990300
58.009497869018218807469 2245.89019485712242385 58.009497869018218807469 151.23907985990166480
60.009497869018190385759 2249.10927165366092595 60.009497869018190385759 150.57179320994919181
62.009497869018190385759 2252.17057498398435200 62.009497869018190385759 149.91643442273044684
64.009497869018190385759 2255.08555123197038483 64.009497869018190385759 149.27232948277170976
66.009497869018190385759 2257.86457748583779903 66.009497869018190385759 148.62851383529050509
68.009497869018190385759 2260.51707719647401973 68.009497869018190385759 147.98932258617006141
70.009497869018190385759 2263.05149455607079290 70.009497869018190385759 147.38106268300072088
72.009497869018218807469 2265.47568067862994212 72.009497869018218807469 146.77378600496723493
74.009497869018190385759 2267.79669923566370926 74.009497869018190385759 146.18444761629157824
76.009497869018190385759 2270.02101314114952402 76.009497869018190385759 145.60741661570816063
78.009497869018190385759 2272.15464712436323680 78.009497869018190385759 145.03835139259751941
80.009497869018190385759 2274.20303385445367894 80.009497869018190385759 144.48526232753712861
82.009497869018218807469 2276.17119717470313844 82.009497869018218807469 143.94637081633899811
84.009497869018190385759 2278.06385234883191515 84.009497869018190385759 143.42582115455707026
86.009497869018190385759 2279.88525978834013586 86.009497869018190385759 142.90727384230498842
88.009497869018190385759 2281.63936738727898046 88.009497869018190385759 142.40966025608528867
91.009497869018218807469 2284.15249502525921343 91.009497869018218807469 141.68069808332208481
94.009497869018190385759 2286.53392792758086216 94.009497869018190385759 140.98048063705593336
97.009497869018190385759 2288.79390034479365568 97.009497869018190385759 140.30370362300593001
99.504748934509109403734 2290.58779022146654825 99.504748934509109403734 139.86959673446855845
nan nan nan nan

