Time Pressure difference Time.1 Pressure.1 difference.1
(hr) (psi) (hr) (psi)
0.000200000000006639311 0.04327806596116859 0.000200000000006639311 0.03449972660445333
0.000399999999999067768 0.08653162089435185 0.000399999999999067768 0.09030401191417607
0.000600000000005707079 0.12976440280224183 0.000600000000005707079 0.13212369381412681
0.000799999999998135536 0.17297820216625315 0.000799999999998135536 0.17469800358858029
0.001007140329434719206 0.21771567991398119 0.001007140329434719206 0.21939094187146715
0.001267914553963578328 0.27401041115207986 0.001267914553963578328 0.27605281896882911
0.001596209851982166583 0.34484103233652402 0.001596209851982166583 0.34731039944009429
0.002009509145210586212 0.43395011776053138 0.002009509145210586212 0.43690296019426561
0.002529822128138903281 0.54603809529033254 0.002529822128138903281 0.54951672512686389
0.003184857364445292660 0.68700529415167444 0.003184857364445292660 0.69101869945477934
0.004009497869020606231 0.86425347481471604 0.004009497869020606231 0.86874497469315093
0.005047658755842121536 1.08706053501817990 0.005047658755842121536 1.09185436719996565
0.006354625877804664924 1.36704472119577014 0.006354625877804664924 1.37175935203508059
0.008000000000009777068 1.71873751178894585 0.008000000000009777068 1.72264674954085639
0.010071403294347192059 2.16028718215015170 0.010071403294347192059 2.16209991544527647
0.012679145539692626699 2.71431754141586934 0.012679145539692626699 2.71183131954967038
0.015962098519750611558 3.40896780789876130 0.015962098519750611558 3.39852789007772582
0.020095091452091651263 4.27913900160718086 0.020095091452091651263 4.25479911654601306
0.025298221281346400247 5.36796789819671183 0.025298221281346400247 5.32019637975912740
0.031848573644282396344 6.72853893130454583 0.031848573644282396344 6.64223671949294658
0.040094978690191851456 8.42582363255871236 0.040094978690191851456 8.27730908005593236
0.050476587558421215363 10.53880081889463227 0.050476587558421215363 10.29125818990374697
0.063546258777947173257 13.16265134849620821 0.063546258777947173257 12.75932167505597725
0.079999999999998294697 16.41082930439193177 0.079999999999998294697 15.76493109471297238
0.100714032943542974863 20.41667555373246046 0.100714032943542974863 19.39667202784574584
0.126791455396897845276 25.33404792150333762 0.126791455396897845276 23.74243619406364303
0.159620985197506115583 31.33618556440681857 0.159620985197506115583 28.87951457640555120
0.200950914520774404082 38.61170378838351525 0.200950914520774404082 34.85914271020912025
0.252982212813464002465 47.35625304426503845 0.252982212813464002465 41.68397648162444824
0.318485736442795541734 57.75804767237234927 0.318485736442795541734 49.27748959646693550
0.400949786901819038576 69.97535948627491109 0.400949786901819038576 57.44599733956975030
0.504765875584169521062 84.10455832261420994 0.504765875584169521062 65.83795191332153252
0.635462587779443310865 100.13902109155939968 0.635462587779443310865 73.91232224172453869
0.799999999999997157829 117.92304957105464780 0.799999999999997157829 80.93775621967870393
1.007140329435330272645 137.11121863263781506 1.007140329435330272645 86.05210400027475259
1.267914553968893187630 157.15090995382138317 1.267914553968893187630 88.40699678075351642
1.596209851975103788391 177.30954402918519008 1.596209851975103788391 87.39203808880114366
2.009509145207687197399 196.76108977111687182 2.009509145207687197399 82.87790946200175313
2.529822128134711078928 214.72449786478011902 2.529822128134711078928 75.36607516059798684
3.184857364427983839050 230.61631639896566526 3.184857364427983839050 65.93569276028370041
4.009497869018190385759 244.16024822345224266 4.009497869018190385759 55.95966319225882302
5.009497869018190385759 255.07060377631748338 5.009497869018190385759 46.95234828125668258
6.009497869018190385759 262.57814775042140809 6.009497869018190385759 40.63419516562491651
7.009497869018204596614 268.10242274556208031 7.009497869018204596614 36.23871732783394606
8.009497869018190385759 272.38715449756193721 8.009497869018190385759 33.14511938980994188
9.009497869018204596614 275.84929609134684370 9.009497869018204596614 30.97705902905585873
10.009497869018190385759 278.73673514206416257 10.009497869018190385759 29.43031732880129780
11.009497869018190385759 281.20487723847912775 11.009497869018190385759 28.17568947262775580
12.009497869018190385759 283.35554453410787801 12.009497869018190385759 27.21903851393927454
13.009497869018190385759 285.25832764357636506 13.009497869018190385759 26.47409863743493474
14.009497869018204596614 286.96247183416869575 14.009497869018204596614 25.88244711211273597
15.009497869018190385759 288.50393098339748121 15.009497869018190385759 25.40363876588733305
16.009497869018190385759 289.90968529164996426 16.009497869018190385759 25.00935856517393674
17.009497869018190385759 291.20048163607179958 17.009497869018190385759 24.68693134953937474
18.009497869018190385759 292.39261187123577201 18.009497869018190385759 24.40463840645220728
19.009497869018204596614 293.49906220831076098 19.009497869018204596614 24.17115462280290217
20.009497869018190385759 294.53040506187903702 20.009497869018190385759 23.95700208655414798
21.009497869018204596614 295.49537505355169742 21.009497869018204596614 23.76835303189148974
22.009497869018190385759 296.40121587288007277 22.009497869018190385759 23.60039633004042869
23.009497869018190385759 297.25405876860605758 23.009497869018190385759 23.45203532141343317
24.009497869018190385759 298.05913358991870155 24.009497869018190385759 23.31457137353215359
25.009497869018190385759 298.82090447007823286 25.009497869018190385759 23.18893159698799167
26.009497869018204596614 299.54327510196696949 26.009497869018204596614 23.07582020576916904
27.009497869018190385759 300.22960652911018542 27.009497869018190385759 22.96805871108314179
28.009497869018190385759 300.88288522495918187 28.009497869018190385759 22.86756464965307600
29.009497869018190385759 301.50571260690031750 29.009497869018190385759 22.77405610927025492
30.009497869018190385759 302.10042385699847500 30.009497869018190385759 22.68504183531922180
31.009497869018190385759 302.66908026956724598 31.009497869018190385759 22.60078560613683862
32.009497869018190385759 303.21353778399264911 32.009497869018190385759 22.52059730216108591
33.009497869018190385759 303.73546268380755464 33.009497869018190385759 22.44446825284905245
34.009497869018190385759 304.23635155851729905 34.009497869018190385759 22.37089195907817540
35.009497869018190385759 304.71757253740997839 35.009497869018190385759 22.29990077465527420
36.009497869018190385759 305.18035423481904900 36.009497869018190385759 22.23152752784927344
37.009497869018190385759 305.62582319911024342 37.009497869018190385759 22.16537142366527746
38.009497869018190385759 306.05500957544523999 38.009497869018190385759 22.10118650805576124
39.009497869018190385759 306.46885069083350572 39.009497869018190385759 22.03828708969911077
40.009497869018190385759 306.86821247374001587 40.009497869018190385759 21.97621689486123131
41.009497869018190385759 307.25389231002611723 41.009497869018190385759 21.91731592204239831
42.009497869018190385759 307.62662215317487835 42.009497869018190385759 21.85837642659687319
43.009497869018190385759 307.98708119979897901 43.009497869018190385759 21.80201753686270649
44.009497869018218807469 308.33589951417661723 44.009497869018218807469 21.74525204540482903
46.009497869018190385759 309.00090432985859934 46.009497869018190385759 21.63508612211190396
48.009497869018190385759 309.62583665989910742 48.009497869018190385759 21.52908116202739919
50.009497869018190385759 310.21435127082048666 50.009497869018190385759 21.42413869860589770
52.009497869018190385759 310.76964444704975676 52.009497869018190385759 21.32216860293117477
54.009497869018190385759 311.29453752590831073 54.009497869018190385759 21.22366388626252132
56.009497869018190385759 311.79151743179676259 56.009497869018190385759 21.12713546795506758
58.009497869018218807469 312.26280784109724209 58.009497869018218807469 21.02789345645691910
60.009497869018190385759 312.71038001601704082 60.009497869018190385759 20.93511563346887172
62.009497869018190385759 313.13601577317427882 62.009497869018190385759 20.84399622989834810
64.009497869018190385759 313.54130658840222168 64.009497869018190385759 20.75444153236398037
66.009497869018190385759 313.92769526541059122 66.009497869018190385759 20.66492705731312185
68.009497869018190385759 314.29649201662203950 68.009497869018190385759 20.57605554674022486
70.009497869018190385759 314.64887090084408783 70.009497869018190385759 20.49148465111240114
72.009497869018218807469 314.98592351681492119 72.009497869018218807469 20.40705046058367955
74.009497869018190385759 315.30863197929016906 74.009497869018190385759 20.32511036376246594
76.009497869018190385759 315.61789487524009701 76.009497869018190385759 20.24488145459044119
78.009497869018190385759 315.91454986755854861 78.009497869018190385759 20.16576008667131248
80.009497869018190385759 316.19935230061923903 80.009497869018190385759 20.08886000275917283
82.009497869018218807469 316.47300067669669943 82.009497869018218807469 20.01393391029312596
84.009497869018190385759 316.73615059395524440 84.009497869018190385759 19.94155802148922163
86.009497869018190385759 316.98939440907406606 86.009497869018190385759 19.86946053422422409
88.009497869018190385759 317.23328102710831899 88.009497869018190385759 19.80027361849314005
91.009497869018218807469 317.58269984308418543 91.009497869018218807469 19.69892058912499522
94.009497869018190385759 317.91380816105407803 94.009497869018190385759 19.60156415274574471
97.009497869018190385759 318.22802892494462412 97.009497869018190385759 19.50746681389387049
99.504748934509109403734 318.47744676876004633 99.504748934509109403734 19.44710970639669512
nan nan nan nan

