Time Pressure difference Time.1 Pressure.1 difference.1
(hr) (psi) (hr) (psi)
0.000200000000006639311 0.72407533435032068 0.000200000000006639311 0.57720696434373830
0.000399999999999067768 1.44774058034780984 0.000399999999999067768 1.51085558394871500
0.000600000000005707079 2.17105827765289172 0.000600000000005707079 2.21053103112096760
0.000799999999998135536 2.89405838239692725 0.000799999999998135536 2.92283198311663162
0.001007140329434719206 3.64255079856083919 0.001007140329434719206 3.67057921977262369
0.001267914553963578328 4.58440495581364349 0.001267914553963578328 4.61857600967079396
0.001596209851982166583 5.76945573332261397 0.001596209851982166583 5.81077014447850093
0.002009509145210586212 7.26031927791658216 0.002009509145210586212 7.30972260325021228
0.002529822128138903281 9.13563736351133215 0.002529822128138903281 9.19383751654560832
0.003184857364445292660 11.49412703676839875 0.003184857364445292660 11.56127439472419205
0.004009497869020606231 14.45962544401544037 0.004009497869020606231 14.53477169198156460
0.005047658755842121536 18.18735895126570412 0.005047658755842121536 18.26756345123019543
0.006354625877804664924 22.87170975846769139 0.006354625877804664924 22.95058915904846586
0.008000000000009777068 28.75580067800736472 0.008000000000009777068 28.82120523270278767
0.010071403294347192059 36.14326631674293111 0.010071403294347192059 36.17359473918058654
0.012679145539692626699 45.41262040445781878 0.012679145539692626699 45.37102400015795212
0.015962098519750611558 57.03465370907543530 0.015962098519750611558 56.85998585322348475
0.020095091452091651263 71.59328714227399360 0.020095091452091651263 71.18606214221213691
0.025298221281346400247 89.81023214290652845 0.025298221281346400247 89.01097789212387568
0.031848573644282396344 112.57363211990296747 0.031848573644282396344 111.12972972997815191
0.040094978690191851456 140.97051077550153764 0.040094978690191851456 138.48574807016657928
0.050476587558421215363 176.32224446996792722 0.050476587558421215363 172.18066586954347486
0.063546258777947173257 220.22128217676350914 0.063546258777947173257 213.47326648651346659
0.079999999999998294697 274.56579797732655379 0.079999999999998294697 263.75942408462083222
0.100714032943542974863 341.58668714898544749 0.100714032943542974863 324.52124354280380203
0.126791455396897845276 423.85810945592123744 0.126791455396897845276 397.22922093914172592
0.159620985197506115583 524.27848925065245567 0.159620985197506115583 483.17649387447744402
0.200950914520774404082 646.00350569026272751 0.200950914520774404082 583.22027226696013713
0.252982212813464002465 792.30654131751123259 0.252982212813464002465 697.40499113487067007
0.318485736442795541734 966.33656682622984135 0.318485736442795541734 824.45030671011988943
0.400949786901819038576 1170.74159140498409215 0.400949786901819038576 961.11572471972476706
0.504765875584169521062 1407.13395655142994656 0.504765875584169521062 1101.51958008826409241
0.635462587779443310865 1675.40285287801316372 0.635462587779443310865 1236.61000673654507409
0.799999999999997157829 1972.94332936187629457 0.799999999999997157829 1354.15092136770135767
1.007140329435330272645 2293.97615789220981242 1.007140329435330272645 1439.71789385075067003
1.267914553968893187630 2629.25560884278047524 1.267914553968893187630 1479.11706152414558346
1.596209851975103788391 2966.52506356521371345 1.596209851975103788391 1462.13602187032688562
2.009509145207687197399 3291.96438655522479166 2.009509145207687197399 1386.61117753733697100
2.529822128134711078928 3592.50602196843647107 2.529822128134711078928 1260.93241134077402421
3.184857364427983839050 3858.38837052115604820 3.184857364427983839050 1103.15485964320782841
4.009497869018190385759 4084.98876835391274653 4.009497869018190385759 936.24821110125344603
5.009497869018190385759 4267.52740933454242622 5.009497869018190385759 785.54890393640994262
6.009497869018190385759 4393.13439505512815231 6.009497869018190385759 679.84134219410907463
7.009497869018204596614 4485.55976516613463900 7.009497869018204596614 606.30161683106791770
8.009497869018190385759 4557.24662332459320169 8.009497869018190385759 554.54334363720477086
9.009497869018204596614 4615.17091537445685390 9.009497869018204596614 518.27002606304995425
10.009497869018190385759 4663.47999179991984420 10.009497869018190385759 492.39184761648323274
11.009497869018190385759 4704.77390764378560561 11.009497869018190385759 471.40095848434896197
12.009497869018190385759 4740.75622585911150964 12.009497869018190385759 455.39545206013787038
13.009497869018190385759 4772.59125095983472420 13.009497869018190385759 442.93203489554599628
14.009497869018204596614 4801.10289414859198587 14.009497869018204596614 433.03324976034770089
15.009497869018190385759 4826.89269145299567754 15.009497869018190385759 425.02241781388420350
16.009497869018190385759 4850.41204237952842959 16.009497869018190385759 418.42580676348700308
17.009497869018190385759 4872.00805814196974097 17.009497869018190385759 413.03135142498570076
18.009497869018190385759 4891.95331399952101492 18.009497869018190385759 408.30837333871960482
19.009497869018204596614 4910.46507925442983833 19.009497869018204596614 404.40201003535628388
20.009497869018190385759 4927.72023853528389736 20.009497869018190385759 400.81907337119440626
21.009497869018204596614 4943.86492878057742928 21.009497869018204596614 397.66282957203071646
22.009497869018190385759 4959.02034248856944032 22.009497869018190385759 394.85278475259951847
23.009497869018190385759 4973.28906016706241644 23.009497869018190385759 392.37059095441702539
24.009497869018190385759 4986.75858121594683325 24.009497869018190385759 390.07071336486490054
25.009497869018190385759 4999.50359401861624065 25.009497869018190385759 387.96866325729905611
26.009497869018204596614 5011.58941035983116308 26.009497869018204596614 386.07622267344567035
27.009497869018190385759 5023.07226308318968222 27.009497869018190385759 384.27328997389105325
28.009497869018190385759 5034.00211818681691511 28.009497869018190385759 382.59194702304193925
29.009497869018190385759 5044.42249938467830361 29.009497869018190385759 381.02747721279081361
30.009497869018190385759 5054.37247606901291874 30.009497869018190385759 379.53819993707156755
31.009497869018190385759 5063.88653527929818665 31.009497869018190385759 378.12852841036635709
32.009497869018190385759 5072.99572830910801713 32.009497869018190385759 376.78691640154130482
33.009497869018190385759 5081.72793336370341422 33.009497869018190385759 375.51321884574372234
34.009497869018190385759 5090.10818953673242504 34.009497869018190385759 374.28223085380795965
35.009497869018190385759 5098.15938668359012809 35.009497869018190385759 373.09449372980941462
36.009497869018190385759 5105.90208046716361423 36.009497869018190385759 371.95055671593974012
37.009497869018190385759 5113.35511890818997927 37.009497869018190385759 370.84371420363061134
38.009497869018190385759 5120.53573712764136872 38.009497869018190385759 369.76985119247137845
39.009497869018190385759 5127.45961732740670413 39.009497869018190385759 368.71749553919664777
40.009497869018190385759 5134.14124715680372901 40.009497869018190385759 367.67901343325519292
41.009497869018190385759 5140.59396749466759502 41.009497869018190385759 366.69355484955553948
42.009497869018190385759 5146.83002448581100907 42.009497869018190385759 365.70745175267848026
43.009497869018190385759 5152.86078161202112824 43.009497869018190385759 364.76452417443368859
44.009497869018218807469 5158.69678033333821077 44.009497869018218807469 363.81479383658074767
46.009497869018190385759 5169.82282244186535536 46.009497869018190385759 361.97163319687223293
48.009497869018190385759 5180.27842104061983264 48.009497869018190385759 360.19808867238151606
50.009497869018190385759 5190.12472318488198653 50.009497869018190385759 358.44232053436786600
52.009497869018190385759 5199.41520517179378658 52.009497869018190385759 356.73628239519462113
54.009497869018190385759 5208.19707014500363584 54.009497869018190385759 355.08822271246907576
56.009497869018190385759 5216.51192626275314979 56.009497869018190385759 353.47322802155593990
58.009497869018218807469 5224.39697734143373964 58.009497869018218807469 351.81283282918303712
60.009497869018190385759 5231.88520411413082911 60.009497869018190385759 350.26058848303688364
62.009497869018190385759 5239.00641774349242041 62.009497869018190385759 348.73609076945319885
64.009497869018190385759 5245.78724484442227549 64.009497869018190385759 347.23777179147424476
66.009497869018190385759 5252.25182463283090328 66.009497869018190385759 345.74012576658486751
68.009497869018190385759 5258.42207797040646255 68.009497869018190385759 344.25323703199990177
70.009497869018190385759 5264.31764776412182982 70.009497869018190385759 342.83830089361129012
72.009497869018218807469 5269.95679730055690015 72.009497869018218807469 341.42565193668849588
74.009497869018190385759 5275.35595811504663288 74.009497869018190385759 340.05473108602586763
76.009497869018190385759 5280.53016425882469775 76.009497869018190385759 338.71243972103235365
78.009497869018190385759 5285.49343047646016203 78.009497869018190385759 337.38867837315467568
80.009497869018190385759 5290.25839426036054647 80.009497869018190385759 336.10208081539383329
82.009497869018218807469 5294.83674209088712814 82.009497869018218807469 334.84850965298113579
84.009497869018190385759 5299.23944262963505025 84.009497869018190385759 333.63760535953116459
86.009497869018190385759 5303.47640645950832550 86.009497869018190385759 332.43135893798222469
88.009497869018190385759 5307.55681718431151239 88.009497869018190385759 331.27380861709679039
91.009497869018218807469 5313.40286275929247495 91.009497869018218807469 329.57809447189896446
94.009497869018190385759 5318.94255961763519736 94.009497869018190385759 327.94924640170762586
97.009497869018190385759 5324.19971470580458117 97.009497869018190385759 326.37492554014744428
99.504748934509109403734 5328.37266709271625587 99.504748934509109403734 325.36510470317551835
nan nan nan nan

