Time Pressure difference Time.1 Pressure.1 difference.1
(hr) (psi) (hr) (psi)
0.000200000000006639311 0.40281892163856925 0.000200000000006639311 0.32111283993375789
0.000399999999999067768 0.80540970217050567 0.000399999999999067768 0.84052195704733101
0.000600000000005707079 1.20780713377471227 0.000600000000005707079 1.22976668857764171
0.000799999999998135536 1.61002788170127920 0.000799999999998135536 1.62603526417063193
0.001007140329434719206 2.02643055919936321 0.001007140329434719206 2.04202338203442535
0.001267914553963578328 2.55040459610781989 0.001267914553963578328 2.56941469963294766
0.001596209851982166583 3.20967422405533886 0.001596209851982166583 3.23265833325010821
0.002009509145210586212 4.03907417300186911 0.002009509145210586212 4.06655832180816379
0.002529822128138903281 5.08235457924078737 0.002529822128138903281 5.11473259541157965
0.003184857364445292660 6.39443389171943188 0.003184857364445292660 6.43178943338679154
0.004009497869020606231 8.04420541942927869 0.004009497869020606231 8.08601091829778973
0.005047658755842121536 10.11802497978459847 0.005047658755842121536 10.16264449470737397
0.006354625877804664924 12.72403163574524498 0.006354625877804664924 12.76791396894190456
0.008000000000009777068 15.99747991742018804 0.008000000000009777068 16.03386589957258579
0.010071403294347192059 20.10728838770526039 0.010071403294347192059 20.12416075145219096
0.012679145539692626699 25.26403250087078689 0.012679145539692626699 25.24089151273154741
0.015962098519750611558 31.72962344275001101 0.015962098519750611558 31.63245189995421214
0.020095091452091651263 39.82890916880529630 0.020095091452091651263 39.60236100785134994
0.025298221281346400247 49.96339351398478357 0.025298221281346400247 49.51875091929650097
0.031848573644282396344 62.62717005291153782 0.031848573644282396344 61.82389561989588600
0.040094978690191851456 78.42497381073879126 0.040094978690191851456 77.04264605282830303
0.050476587558421215363 98.09191531432698241 0.050476587558421215363 95.78786469064256437
0.063546258777947173257 122.51390870523394483 0.063546258777947173257 118.75984020629026361
0.079999999999998294697 152.74694967934027545 0.079999999999998294697 146.73512788155917974
0.100714032943542974863 190.03213400012523948 0.100714032943542974863 180.53825502841038997
0.126791455396897845276 235.80152296168489556 0.126791455396897845276 220.98729072936160378
0.159620985197506115583 291.66757333024804666 0.159620985197506115583 268.80163567269778468
0.200950914520774404082 359.38585833803119840 0.200950914520774404082 324.45817445656177824
0.252982212813464002465 440.77743218123606539 0.252982212813464002465 387.98162725204298340
0.318485736442795541734 537.59413602746576544 0.318485736442795541734 458.65971085942300078
0.400949786901819038576 651.30911521840505429 0.400949786901819038576 534.68966754522614337
0.504765875584169521062 782.81935054125528950 0.504765875584169521062 612.79939857783892876
0.635462587779443310865 932.06319631374515211 0.635462587779443310865 687.95315317297456659
0.799999999999997157829 1097.59146139212407434 0.799999999999997157829 753.34373096777869705
1.007140329435330272645 1276.18903496532129793 1.007140329435330272645 800.94650646409581896
1.267914553968893187630 1462.71231572402962229 1.267914553968893187630 822.86512388239816573
1.596209851975103788391 1650.34267904087755596 1.596209851975103788391 813.41820067268758976
2.009509145207687197399 1831.39168171578012334 2.009509145207687197399 771.40208037709317068
2.529822128134711078928 1998.58955704910704299 2.529822128134711078928 701.48423803325817971
3.184857364427983839050 2146.50571417498804294 3.184857364427983839050 613.70914030725600696
4.009497869018190385759 2272.56846423367051102 4.009497869018190385759 520.85532663563981259
5.009497869018190385759 2374.11869668726239979 5.009497869018190385759 437.01801092554302386
6.009497869018190385759 2443.99660598469154138 6.009497869018190385759 378.21058577235493203
7.009497869018204596614 2495.41485786253906554 7.009497869018204596614 337.29883051291591300
8.009497869018190385759 2535.29582263115344176 8.009497869018190385759 308.50457278207710488
9.009497869018204596614 2567.52037131176666662 9.009497869018204596614 288.32493403967379209
10.009497869018190385759 2594.39576555305848160 10.009497869018190385759 273.92833821422749452
11.009497869018190385759 2617.36847275815216562 11.009497869018190385759 262.25064816830450809
12.009497869018190385759 2637.38622220208071667 12.009497869018190385759 253.34643539897325581
13.009497869018190385759 2655.09674191328758752 13.009497869018190385759 246.41276424074052898
14.009497869018204596614 2670.95839168726251955 14.009497869018204596614 240.90585388966468372
15.009497869018190385759 2685.30581915316133745 15.009497869018190385759 236.44925312864364741
16.009497869018190385759 2698.39014771458823816 16.009497869018190385759 232.77941433738817523
17.009497869018190385759 2710.40448292035989653 17.009497869018190385759 229.77836102263574958
18.009497869018190385759 2721.50046433996340056 18.009497869018190385759 227.15086516774746883
19.009497869018204596614 2731.79896363119996749 19.009497869018204596614 224.97766995070395524
20.009497869018190385759 2741.39838557595112434 20.009497869018190385759 222.98440403638861085
21.009497869018204596614 2750.38002934459655080 21.009497869018204596614 221.22851668145156623
22.009497869018190385759 2758.81131697065256958 22.009497869018190385759 219.66522737960707445
23.009497869018190385759 2766.74931623087150001 23.009497869018190385759 218.28432876084812619
24.009497869018190385759 2774.24270495231985478 24.009497869018190385759 217.00485663056852559
25.009497869018190385759 2781.33303391380513858 25.009497869018190385759 215.83544024888823287
26.009497869018204596614 2788.05663748753840991 26.009497869018204596614 214.78263422292840801
27.009497869018190385759 2794.44479923248718478 27.009497869018190385759 213.77962338777388140
28.009497869018190385759 2800.52531632462023481 28.009497869018190385759 212.84425558523253130
29.009497869018190385759 2806.32240195653412229 29.009497869018190385759 211.97390686320775899
30.009497869018190385759 2811.85779128436979590 30.009497869018190385759 211.14538939027892184
31.009497869018190385759 2817.15067020135666098 31.009497869018190385759 210.36115833404286946
32.009497869018190385759 2822.21831322023945177 32.009497869018190385759 209.61479027396089236
33.009497869018190385759 2827.07622959543959951 33.009497869018190385759 208.90620450728732749
34.009497869018190385759 2831.73834912158372390 34.009497869018190385759 208.22137900372763397
35.009497869018190385759 2836.21740592512378498 35.009497869018190385759 207.56061490256064417
36.009497869018190385759 2840.52483557023833782 36.009497869018190385759 206.92421775921243920
37.009497869018190385759 2844.67112362248735735 37.009497869018190385759 206.30845709719218917
38.009497869018190385759 2848.66585835606747423 38.009497869018190385759 205.71104365190359431
39.009497869018190385759 2852.51776412237313707 39.009497869018190385759 205.12559521950709041
40.009497869018190385759 2856.23490071711830751 40.009497869018190385759 204.54786494447759537
41.009497869018190385759 2859.82468996255056481 41.009497869018190385759 203.99963281285616290
42.009497869018190385759 2863.29394465647419565 42.009497869018190385759 203.45104212447859027
43.009497869018190385759 2866.64898655197475819 43.009497869018190385759 202.92647092002980003
44.009497869018218807469 2869.89568009348977284 44.009497869018218807469 202.39811519184493704
46.009497869018190385759 2876.08534030099144729 46.009497869018190385759 201.37272467504155316
48.009497869018190385759 2881.90201814213787657 48.009497869018190385759 200.38606312348582605
50.009497869018190385759 2887.37973105917581051 50.009497869018190385759 199.40929096394717135
52.009497869018190385759 2892.54822908407868454 52.009497869018190385759 198.46018468882093089
54.009497869018190385759 2897.43377235653042590 54.009497869018190385759 197.54333309521271644
56.009497869018190385759 2902.05950840364675969 56.009497869018190385759 196.64487627865869968
58.009497869018218807469 2906.44613452098155904 58.009497869018218807469 195.72116217163744523
60.009497869018190385759 2910.61199861062004857 60.009497869018190385759 194.85761474228715429
62.009497869018190385759 2914.57368527339122011 62.009497869018190385759 194.00950337059234130
64.009497869018190385759 2918.34600747666672760 64.009497869018190385759 193.17595580123395393
66.009497869018190385759 2921.94239439343709819 66.009497869018190385759 192.34278261037596280
68.009497869018190385759 2925.37504107778977414 68.009497869018190385759 191.51559393504359718
70.009497869018190385759 2928.65487530785640047 70.009497869018190385759 190.72843406035386238
72.009497869018218807469 2931.79205734881588796 72.009497869018218807469 189.94254659466349722
74.009497869018190385759 2934.79572842262359700 74.009497869018190385759 189.17987338578910794
76.009497869018190385759 2937.67425230031130923 76.009497869018190385759 188.43312738503408355
78.009497869018190385759 2940.43542569035253109 78.009497869018190385759 187.69669003747915781
80.009497869018190385759 2943.08627910576387876 80.009497869018190385759 186.98092771798920353
82.009497869018218807469 2945.63331399079243056 82.009497869018218807469 186.28353870349755539
84.009497869018190385759 2948.08263245142961750 84.009497869018190385759 185.60988620001504046
86.009497869018190385759 2950.43974796138172678 86.009497869018190385759 184.93882497239468421
88.009497869018190385759 2952.70976956000822611 88.009497869018190385759 184.29485444905154168
91.009497869018218807469 2955.96205238562924933 91.009497869018218807469 183.35149163724034338
94.009497869018190385759 2959.04390672981116950 94.009497869018190385759 182.44532788324880812
97.009497869018190385759 2961.96857691679178970 97.009497869018190385759 181.56949880624296156
99.504748934509109403734 2964.29008146307432980 99.504748934509109403734 181.00771342107694295
nan nan nan nan

