Time Pressure difference Time.1 Pressure.1 difference.1
(hr) (psi) (hr) (psi)
0.000200000000006639311 0.29295921573714123 0.000200000000006639311 0.23353661086091482
0.000399999999999067768 0.58575251066945866 0.000399999999999067768 0.61128869603442249
0.000600000000005707079 0.87840518819979074 0.000600000000005707079 0.89437577351101227
0.000799999999998135536 1.17092936851002127 0.000799999999998135536 1.18257110121500486
0.001007140329434719206 1.47376767941771880 0.001007140329434719206 1.48510791420685462
0.001267914553963578328 1.85483970626023265 0.001267914553963578328 1.86866523609668911
0.001596209851982166583 2.33430852658570132 0.001596209851982166583 2.35102424236371510
0.002009509145210586212 2.93750848945590448 0.002009509145210586212 2.95749696131502837
0.002529822128138903281 3.69625787581148213 0.002529822128138903281 3.71980552393569397
0.003184857364445292660 4.65049737579594957 0.003184857364445292660 4.67766504246312120
0.004009497869020606231 5.85033121413038515 0.004009497869020606231 5.88073521330748328
0.005047658755842121536 7.35856362166152600 0.005047658755842121536 7.39101417796899884
0.006354625877804664924 9.25384118963290625 0.006354625877804664924 9.28575561377593139
0.008000000000009777068 11.63453084903286516 0.008000000000009777068 11.66099338150733544
0.010071403294347192059 14.62348246378564376 0.010071403294347192059 14.63575327378340951
0.012679145539692626699 18.37384181881511935 0.012679145539692626699 18.35701200925930721
0.015962098519750611558 23.07608977654546223 0.015962098519750611558 23.00541956360306273
0.020095091452091651263 28.96647939549476192 0.020095091452091651263 28.80171709661916424
0.025298221281346400247 36.33701346471620752 0.025298221281346400247 36.01363703221564094
0.031848573644282396344 45.54703276575384052 0.031848573644282396344 44.96283317810610214
0.040094978690191851456 57.03634458962820730 0.040094978690191851456 56.03101531114785416
0.050476587558421215363 71.33957477405597558 0.050476587558421215363 69.66390159319459485
0.063546258777947173257 89.10102451289741055 0.063546258777947173257 86.37079287730200861
0.079999999999998294697 111.08869067588383928 0.079999999999998294697 106.71645664113395924
0.100714032943542974863 138.20518836372744431 0.100714032943542974863 131.30054911157120046
0.126791455396897845276 171.49201669940720194 0.126791455396897845276 160.71802962135390658
0.159620985197506115583 212.12187151290768838 0.159620985197506115583 195.49209867105295757
0.200950914520774404082 261.37153333674996247 0.200950914520774404082 235.96958142295400762
0.252982212813464002465 320.56540522271717464 0.252982212813464002465 282.16845618330398793
0.318485736442795541734 390.97755347452056185 0.318485736442795541734 333.57069880685310181
0.400949786901819038576 473.67935652247632561 0.400949786901819038576 388.86521276016452475
0.504765875584169521062 569.32316403000390892 0.504765875584169521062 445.67228987479188618
0.635462587779443310865 677.86414277363292058 0.635462587779443310865 500.32956594398149264
0.799999999999997157829 798.24833555790849005 0.799999999999997157829 547.88634979474818465
1.007140329435330272645 928.13747997477912577 1.007140329435330272645 582.50655015570600881
1.267914553968893187630 1063.79077507202168817 1.267914553968893187630 598.44736282356234369
1.596209851975103788391 1200.24922112063836721 1.596209851975103788391 591.57687321650007561
2.009509145207687197399 1331.92122306602186654 2.009509145207687197399 561.01969481970411380
2.529822128134711078928 1453.51967785389592791 2.529822128134711078928 510.17035493327864515
3.184857364427983839050 1561.09506485453675850 3.184857364427983839050 446.33392022345884698
4.009497869018190385759 1652.77706489721504113 4.009497869018190385759 378.80387391682893394
5.009497869018190385759 1726.63177940891819162 5.009497869018190385759 317.83128067312219400
6.009497869018190385759 1777.45207707977579048 6.009497869018190385759 275.06224419807637105
7.009497869018204596614 1814.84716935457390719 7.009497869018204596614 245.30824037302977558
8.009497869018190385759 1843.85150736811146999 8.009497869018190385759 224.36696202332882422
9.009497869018204596614 1867.28754277219400137 9.009497869018204596614 209.69086111976272946
10.009497869018190385759 1886.83328403858808997 10.009497869018190385759 199.22060961034722482
11.009497869018190385759 1903.54070746047409557 11.009497869018190385759 190.72774412240326569
12.009497869018190385759 1918.09907069242240141 12.009497869018190385759 184.25195301743511322
13.009497869018190385759 1930.97944866420903054 13.009497869018190385759 179.20928308417492758
14.009497869018204596614 1942.51519395437276216 14.009497869018204596614 175.20425737430161917
15.009497869018190385759 1952.94968665684450571 15.009497869018190385759 171.96309318446810721
16.009497869018190385759 1962.46556197424615675 16.009497869018190385759 169.29411951810050141
17.009497869018190385759 1971.20326030571663978 17.009497869018190385759 167.11153528918961797
18.009497869018190385759 1979.27306497451877476 18.009497869018190385759 165.20062921290724489
19.009497869018204596614 1986.76288264087293101 19.009497869018204596614 163.62012360051195969
20.009497869018190385759 1993.74428041887358631 20.009497869018190385759 162.17047566282806770
21.009497869018204596614 2000.27638497788848326 21.009497869018204596614 160.89346667741929764
22.009497869018190385759 2006.40823052411087701 22.009497869018190385759 159.75652900335060735
23.009497869018190385759 2012.18132089517962413 23.009497869018190385759 158.75223909879863982
24.009497869018190385759 2017.63105814714185726 24.009497869018190385759 157.82171391314074071
25.009497869018190385759 2022.78766102822169159 25.009497869018190385759 156.97122927191873032
26.009497869018204596614 2027.67755453639188090 26.009497869018204596614 156.20555216212974869
27.009497869018190385759 2032.32349035090010148 27.009497869018190385759 155.47608973656281250
28.009497869018190385759 2036.74568459972374512 28.009497869018190385759 154.79582224380547473
29.009497869018190385759 2040.96174687747929966 29.009497869018190385759 154.16284135506020903
30.009497869018190385759 2044.98748457045121540 30.009497869018190385759 153.56028319293011464
31.009497869018190385759 2048.83685105553195172 31.009497869018190385759 152.98993333384936477
32.009497869018190385759 2052.52240961471989067 32.009497869018190385759 152.44712019924426727
33.009497869018190385759 2056.05543970577400614 33.009497869018190385759 151.93178509620895511
34.009497869018190385759 2059.44607208842489854 34.009497869018190385759 151.43373018452916767
35.009497869018190385759 2062.70356794554436419 35.009497869018190385759 150.95317447458955940
36.009497869018190385759 2065.83624405108275823 36.009497869018190385759 150.49034018851816086
37.009497869018190385759 2068.85172627090014430 37.009497869018190385759 150.04251425250339480
38.009497869018190385759 2071.75698789532179944 38.009497869018190385759 149.60803174683900352
39.009497869018190385759 2074.55837390718033930 39.009497869018190385759 149.18225106873242680
40.009497869018190385759 2077.26174597608587646 40.009497869018190385759 148.76208359598371089
41.009497869018190385759 2079.87250179094598934 41.009497869018190385759 148.36336931844084575
42.009497869018190385759 2082.39559611379945636 42.009497869018190385759 147.96439427234804498
43.009497869018190385759 2084.83562658325445227 43.009497869018190385759 147.58288794183985715
44.009497869018218807469 2087.19685824981070255 44.009497869018218807469 147.19862923043265823
46.009497869018190385759 2091.69842930981212703 46.009497869018190385759 146.45289067275751904
48.009497869018190385759 2095.92874046700944746 48.009497869018190385759 145.73531863526241636
50.009497869018190385759 2099.91253167940067215 50.009497869018190385759 145.02493888287065715
52.009497869018190385759 2103.67143933387524157 52.009497869018190385759 144.33467977368792390
54.009497869018190385759 2107.22456171384010304 54.009497869018190385759 143.66787861470015741
56.009497869018190385759 2110.58873338447028800 56.009497869018190385759 143.01445547538816072
58.009497869018218807469 2113.77900692435014207 58.009497869018218807469 142.34266339755450304
60.009497869018190385759 2116.80872626226937427 60.009497869018190385759 141.71462890348158226
62.009497869018190385759 2119.68995292610270553 62.009497869018190385759 141.09782063315807932
64.009497869018190385759 2122.43345998303038868 64.009497869018190385759 140.49160421907924956
66.009497869018190385759 2125.04901410431784825 66.009497869018190385759 139.88566008027342491
68.009497869018190385759 2127.54548442021086885 68.009497869018190385759 139.28406831639534857
70.009497869018190385759 2129.93081840571358043 70.009497869018190385759 138.71158840753008690
72.009497869018218807469 2132.21240534459320770 72.009497869018218807469 138.14003388702801089
74.009497869018190385759 2134.39689339827191361 74.009497869018190385759 137.58536246239208367
76.009497869018190385759 2136.49036530931743982 76.009497869018190385759 137.04227446184296468
78.009497869018190385759 2138.49849141116555984 78.009497869018190385759 136.50668366362120310
80.009497869018190385759 2140.42638480419191183 80.009497869018190385759 135.98612924944669089
82.009497869018218807469 2142.27877381148528002 82.009497869018218807469 135.47893723890729234
84.009497869018190385759 2144.06009632831228373 84.009497869018190385759 134.98900814546547622
86.009497869018190385759 2145.77436215373199957 86.009497869018190385759 134.50096361628703789
88.009497869018190385759 2147.42528695273313133 88.009497869018190385759 134.03262141749203806
91.009497869018218807469 2149.79058355318511531 91.009497869018218807469 133.34653937253844447
94.009497869018190385759 2152.03193216713543734 94.009497869018190385759 132.68751118781730725
97.009497869018190385759 2154.15896503039402887 97.009497869018190385759 132.05054458635851233
99.504748934509109403734 2155.84733197314517383 99.504748934509109403734 131.64197339714687018
nan nan nan nan

