Time Pressure difference Time.1 Pressure.1 difference.1
(hr) (psi) (hr) (psi)
0.000200000000006639311 0.31543051921697884 0.000200000000006639311 0.25144993044399638
0.000399999999999067768 0.63068239074921828 0.000399999999999067768 0.65817731760524478
0.000600000000005707079 0.94578285888557001 0.000600000000005707079 0.96297846068373205
0.000799999999998135536 1.26074497348096037 0.000799999999998135536 1.27327968000138325
0.001007140329434719206 1.58681235937305498 0.001007140329434719206 1.59902244171703956
0.001267914553963578328 1.99711434281996647 0.001267914553963578328 2.01200035363819651
0.001596209851982166583 2.51336060106812731 0.001596209851982166583 2.53135848822684073
0.002009509145210586212 3.16282874290848826 0.002009509145210586212 3.18435042141589708
0.002529822128138903281 3.97977765605838529 0.002529822128138903281 4.00513151582848881
0.003184857364445292660 5.00721166314393518 0.003184857364445292660 5.03646321333387270
0.004009497869020606231 6.29907821066879503 0.004009497869020606231 6.33181433478277356
0.005047658755842121536 7.92299889945942670 0.005047658755842121536 7.95793856093821184
0.006354625877804664924 9.96365287179224701 0.006354625877804664924 9.99801527733260720
0.008000000000009777068 12.52695224938481822 0.008000000000009777068 12.55544457838431960
0.010071403294347192059 15.74517003913283730 0.010071403294347192059 15.75838207603384156
0.012679145539692626699 19.78319900378104990 0.012679145539692626699 19.76507827133317363
0.015962098519750611558 24.84613075372366353 0.015962098519750611558 24.77003981422034684
0.020095091452091651263 31.18834003094464791 0.020095091452091651263 31.01093971482574929
0.025298221281346400247 39.12422756570295945 0.025298221281346400247 38.77604669093672385
0.031848573644282396344 49.04069721085428313 0.031848573644282396344 48.41168685938128391
0.040094978690191851456 61.41129147576446456 0.040094978690191851456 60.32884887194612844
0.050476587558421215363 76.81164443002050746 0.050476587558421215363 75.00743949949077205
0.063546258777947173257 95.93547809769351886 0.063546258777947173257 92.99582528550413940
0.079999999999998294697 119.60969819931813163 0.079999999999998294697 114.90209394031184331
0.100714032943542974863 148.80615451662700366 0.100714032943542974863 141.37189804910647695
0.126791455396897845276 184.64623388941853932 0.126791455396897845276 173.04583302981001225
0.159620985197506115583 228.39258324827275715 0.159620985197506115583 210.48723123957122993
0.200950914520774404082 281.41991799610292446 0.200950914520774404082 254.06952090710106518
0.252982212813464002465 345.15422891877784650 0.252982212813464002465 303.81205935645516547
0.318485736442795541734 420.96730899671388215 0.318485736442795541734 359.15708763578783191
0.400949786901819038576 510.01271625573440360 0.400949786901819038576 418.69294214801800535
0.504765875584169521062 612.99283854366888136 0.504765875584169521062 479.85738029132426163
0.635462587779443310865 729.85940372501954698 0.635462587779443310865 538.70711787718460073
0.799999999999997157829 859.47761129672528568 0.799999999999997157829 589.91172321650435606
1.007140329435330272645 999.32984349557193582 1.007140329435330272645 627.18745030969478194
1.267914553968893187630 1145.38836293265967470 1.267914553968893187630 644.35099576741515648
1.596209851975103788391 1292.31379205886901218 1.596209851975103788391 636.95350837799298915
2.009509145207687197399 1434.08563506256336950 2.009509145207687197399 604.05245550189738424
2.529822128134711078928 1565.01124405291648145 2.529822128134711078928 549.30274011281994717
3.184857364427983839050 1680.83815221553822994 3.184857364427983839050 480.56976069514462324
4.009497869018190385759 1779.55257839785394935 4.009497869018190385759 407.85985288204028620
5.009497869018190385759 1859.07228521585216185 5.009497869018190385759 342.21038458839007035
6.009497869018190385759 1913.79073071941775197 6.009497869018190385759 296.16076861099696771
7.009497869018204596614 1954.05419654938509666 7.009497869018204596614 264.12449744709738297
8.009497869018190385759 1985.28329912646086086 8.009497869018190385759 241.57692786034553478
9.009497869018204596614 2010.51698497347024386 9.009497869018204596614 225.77510330792637205
10.009497869018190385759 2031.56197343927510701 10.009497869018190385759 214.50173591568636766
11.009497869018190385759 2049.55093218045385584 11.009497869018190385759 205.35742904088306204
12.009497869018190385759 2065.22598804667040895 12.009497869018190385759 198.38491532274971973
13.009497869018190385759 2079.09434955606639051 13.009497869018190385759 192.95544968438153433
14.009497869018204596614 2091.51493894519126115 14.009497869018204596614 188.64322029789857993
15.009497869018190385759 2102.74980466745455487 15.009497869018190385759 185.15344408214036775
16.009497869018190385759 2112.99559087567968163 16.009497869018190385759 182.27974800386388665
17.009497869018190385759 2122.40351038598464584 17.009497869018190385759 179.92974964375815716
18.009497869018190385759 2131.09230575381434392 18.009497869018190385759 177.87226838548818364
19.009497869018204596614 2139.15662647980389011 19.009497869018204596614 176.17053080850575952
20.009497869018190385759 2146.67352920100302072 20.009497869018190385759 174.60968828469273717
21.009497869018204596614 2153.70667587107891450 21.009497869018204596614 173.23472690551682263
22.009497869018190385759 2160.30886184272185346 22.009497869018190385759 172.01058094394852560
23.009497869018190385759 2166.52477448657100467 23.009497869018190385759 170.92925743876327260
24.009497869018190385759 2172.39253135729177302 24.009497869018190385759 169.92735674170552329
25.009497869018190385759 2177.94466911845438517 25.009497869018190385759 169.01163606266248962
26.009497869018204596614 2183.20963968548994671 26.009497869018204596614 168.18722803820219269
27.009497869018190385759 2188.21193989486073406 27.009497869018190385759 167.40181252885597019
28.009497869018190385759 2192.97333654345220566 28.009497869018190385759 166.66936542727918891
29.009497869018190385759 2197.51278996183100389 29.009497869018190385759 165.98783202718129814
30.009497869018190385759 2201.84732003466206152 30.009497869018190385759 165.33905491511509922
31.009497869018190385759 2205.99195042626934082 31.009497869018190385759 164.72495662934349525
32.009497869018190385759 2209.96020807948525544 32.009497869018190385759 164.14050725998174585
33.009497869018190385759 2213.76423763775164844 33.009497869018190385759 163.58564361211136884
34.009497869018190385759 2217.41494693611684852 34.009497869018190385759 163.04938562481979147
35.009497869018190385759 2220.92230753227659079 35.009497869018190385759 162.53196910758364879
36.009497869018190385759 2224.29527413454661655 36.009497869018190385759 162.03363332797835028
37.009497869018190385759 2227.54205754736085510 37.009497869018190385759 161.55145710709885520
38.009497869018190385759 2230.67016594411052210 38.009497869018190385759 161.08364781832946733
39.009497869018190385759 2233.68643099665177942 39.009497869018190385759 160.62520782684541132
40.009497869018190385759 2236.59716399129729325 40.009497869018190385759 160.17281159908475274
41.009497869018190385759 2239.40817664422866073 41.009497869018190385759 159.74351412411670026
42.009497869018190385759 2242.12480377025531197 42.009497869018190385759 159.31393587846565651
43.009497869018190385759 2244.75199566776564097 43.009497869018190385759 158.90316627828778451
44.009497869018218807469 2247.29434453601743371 44.009497869018218807469 158.48943317708517498
46.009497869018190385759 2252.14120655800797977 46.009497869018190385759 157.68649308231562145
48.009497869018190385759 2256.69600180964926039 48.009497869018190385759 156.91388000785354961
50.009497869018190385759 2260.98536791617243580 50.009497869018190385759 156.14901089945450963
52.009497869018190385759 2265.03260087368926179 52.009497869018190385759 155.40580577905603832
54.009497869018190385759 2268.85826389075418774 54.009497869018190385759 154.68785794025953351
56.009497869018190385759 2272.48048282021090927 56.009497869018190385759 153.98431427605711974
58.009497869018218807469 2275.91546484184300425 58.009497869018218807469 153.26099269225329635
60.009497869018190385759 2279.17757742443200186 60.009497869018190385759 152.58478509778271359
62.009497869018190385759 2282.27980726986652371 62.009497869018190385759 151.92066482945142525
64.009497869018190385759 2285.23375378854689188 64.009497869018190385759 151.26794886088362091
66.009497869018190385759 2288.04993279981954402 66.009497869018190385759 150.61552605233984536
68.009497869018190385759 2290.73789373653380608 68.009497869018190385759 149.96778946566431046
70.009497869018190385759 2293.30619368115230827 70.009497869018190385759 149.35139774560769865
72.009497869018218807469 2295.76278870909300167 72.009497869018218807469 148.73600239540797929
74.009497869018190385759 2298.11483692597994377 74.009497869018190385759 148.13878515126870639
76.009497869018190385759 2300.36888764838431598 76.009497869018190385759 147.55403983249570388
78.009497869018190385759 2302.53104615008987821 78.009497869018190385759 146.97736678554667833
80.009497869018190385759 2304.60681772951329549 80.009497869018190385759 146.41688348164856848
82.009497869018218807469 2306.60129339361628809 82.009497869018218807469 145.87078753848257406
84.009497869018190385759 2308.51925144440474469 84.009497869018190385759 145.34327865662336876
86.009497869018190385759 2310.36500925075142732 86.009497869018190385759 144.81779889367268765
88.009497869018190385759 2312.14256748603929736 88.009497869018190385759 144.31353271940193395
91.009497869018218807469 2314.68929308709402903 91.009497869018218807469 143.57482506304563685
94.009497869018190385759 2317.10256332768221910 94.009497869018190385759 142.86524642097379001
97.009497869018190385759 2319.39274927988435593 97.009497869018190385759 142.17942158588033408
99.504748934509109403734 2321.21062164153954654 99.504748934509109403734 141.73951112931439411
nan nan nan nan

