Time Pressure difference Time.1 Pressure.1 difference.1
(hr) (psi) (hr) (psi)
0.000200000000006639311 0.31043689622145931 0.000200000000006639311 0.24746919275886711
0.000399999999999067768 0.62069797295371609 0.000399999999999067768 0.64775762392283975
0.000600000000005707079 0.93081004317761906 0.000600000000005707079 0.94773341908979425
0.000799999999998135536 1.24078595015408499 0.000799999999998135536 1.25312221804885460
0.001007140329434719206 1.56169131938298045 0.001007140329434719206 1.57370810227033187
0.001267914553963578328 1.96549775691780337 0.001267914553963578328 1.98014810529563956
0.001596209851982166583 2.47357125118314380 0.001596209851982166583 2.49128421136836842
0.002009509145210586212 3.11275757547458065 0.002009509145210586212 3.13393854139348171
0.002529822128138903281 3.91677326044796237 0.002529822128138903281 3.94172573985231178
0.003184857364445292660 4.92794182151104998 0.003184857364445292660 4.95673028647370550
0.004009497869020606231 6.19935665588248241 0.004009497869020606231 6.23157453001048722
0.005047658755842121536 7.79756883772656018 0.005047658755842121536 7.83195536472283127
0.006354625877804664924 9.80591694242350442 0.006354625877804664924 9.83973535209779016
0.008000000000009777068 12.32863638263993877 0.008000000000009777068 12.35667764574498761
0.010071403294347192059 15.49590613350012980 0.010071403294347192059 15.50890900886708046
0.012679145539692626699 19.47000851823306533 0.012679145539692626699 19.45217465753898267
0.015962098519750611558 24.45278831435073030 0.015962098519750611558 24.37790198074984005
0.020095091452091651263 30.69459322306689586 0.020095091452091651263 30.52000135522428437
0.025298221281346400247 38.50484665437257092 0.025298221281346400247 38.16217787788759352
0.031848573644282396344 48.26432733416530141 0.031848573644282396344 47.64527493020901971
0.040094978690191851456 60.43908105662306696 0.040094978690191851456 59.37377474732428340
0.050476587558421215363 75.59562895091728763 0.050476587558421215363 73.81998663142495332
0.063546258777947173257 94.41671063440549005 0.063546258777947173257 91.52359586145922776
0.079999999999998294697 117.71614097188827941 0.079999999999998294697 113.08306342938341515
0.100714032943542974863 146.45038426042708579 0.100714032943542974863 139.13382050743197738
0.126791455396897845276 181.72307451386046750 0.126791455396897845276 170.30632116126420783
0.159620985197506115583 224.77686952930272923 0.159620985197506115583 207.15497955767827420
0.200950914520774404082 276.96472140513560589 0.200950914520774404082 250.04731213284614455
0.252982212813464002465 339.69004587520879568 0.252982212813464002465 299.00236976242155151
0.318485736442795541734 414.30291888067091577 0.318485736442795541734 353.47122345158015833
0.400949786901819038576 501.93863631501045575 0.400949786901819038576 412.06455783960615236
0.504765875584169521062 603.28846642952112234 0.504765875584169521062 472.26069353209487645
0.635462587779443310865 718.30490129137808708 0.635462587779443310865 530.17877300313944033
0.799999999999997157829 845.87110557698827051 0.799999999999997157829 580.57275134500298464
1.007140329435330272645 983.50931826872897545 1.007140329435330272645 617.25836138658621621
1.267914553968893187630 1127.25556563029545032 1.267914553968893187630 634.15018844655890007
1.596209851975103788391 1271.85499851703980312 1.596209851975103788391 626.86981167543899574
2.009509145207687197399 1411.38243239666530826 2.009509145207687197399 594.48961979474336204
2.529822128134711078928 1540.23534045313408569 2.529822128134711078928 540.60665451736633713
3.184857364427983839050 1654.22857724642676658 3.184857364427983839050 472.96179614588112372
4.009497869018190385759 1751.38024206437853536 4.009497869018190385759 401.40296866754891880
5.009497869018190385759 1829.64106170320019373 5.009497869018190385759 336.79280594055279607
6.009497869018190385759 1883.49325213283054836 6.009497869018190385759 291.47220763034789570
7.009497869018204596614 1923.11930161720488286 7.009497869018204596614 259.94310698619347022
8.009497869018190385759 1953.85401206904998617 8.009497869018190385759 237.75249100767516097
9.009497869018204596614 1978.68822003985337687 9.009497869018204596614 222.20082726611221347
10.009497869018190385759 1999.40004246134481036 10.009497869018190385759 211.10593007005545019
11.009497869018190385759 2017.10421557601375753 11.009497869018190385759 202.10638794788755490
12.009497869018190385759 2032.53111752350423558 12.009497869018190385759 195.24425703267979770
13.009497869018190385759 2046.17992713565354279 13.009497869018190385759 189.90074599544675493
14.009497869018204596614 2058.40388450278715027 14.009497869018204596614 185.65678409265481719
15.009497869018190385759 2069.46088955398590770 15.009497869018190385759 182.22225499376875746
16.009497869018190385759 2079.54447334202768616 16.009497869018190385759 179.39405278480538186
17.009497869018190385759 2088.80345481259155349 17.009497869018190385759 177.08125756496514214
18.009497869018190385759 2097.35469669174835872 18.009497869018190385759 175.05634856935910193
19.009497869018204596614 2105.29135007115246481 19.009497869018204596614 173.38155142895161021
20.009497869018190385759 2112.68925169386329799 20.009497869018190385759 171.84541881316727086
21.009497869018204596614 2119.61105567259210147 21.009497869018204596614 170.49222463260625204
22.009497869018190385759 2126.10872154969729309 22.009497869018190385759 169.28745829048233418
23.009497869018190385759 2132.22622924403958677 23.009497869018190385759 168.22325336321560485
24.009497869018190385759 2138.00109286614724624 24.009497869018190385759 167.23721389091335254
25.009497869018190385759 2143.46533398729161490 25.009497869018190385759 166.33599010916387329
26.009497869018204596614 2148.64695409680143712 26.009497869018204596614 165.52463339907498607
27.009497869018190385759 2153.57006221842493687 27.009497869018190385759 164.75165190834638906
28.009497869018190385759 2158.25608055595739643 28.009497869018190385759 164.03080027539613184
29.009497869018190385759 2162.72366927641951406 29.009497869018190385759 163.36005632226550688
30.009497869018190385759 2166.98957882039303513 30.009497869018190385759 162.72155008796289621
31.009497869018190385759 2171.06859501054987049 31.009497869018190385759 162.11717367478925667
32.009497869018190385759 2174.97403064287072993 32.009497869018190385759 161.54197680204009657
33.009497869018190385759 2178.71783809731186921 33.009497869018190385759 160.99589727524417526
34.009497869018190385759 2182.31075252551818267 34.009497869018190385759 160.46812886031077028
35.009497869018190385759 2185.76258762411407588 35.009497869018190385759 159.95890363358495279
36.009497869018190385759 2189.08215633822101154 36.009497869018190385759 159.46845707476495591
37.009497869018190385759 2192.27753948592544475 37.009497869018190385759 158.99391425052209570
38.009497869018190385759 2195.35612637771282607 38.009497869018190385759 158.53351091355381186
39.009497869018190385759 2198.32464053232479273 39.009497869018190385759 158.08232854726475125
40.009497869018190385759 2201.18929332125026122 40.009497869018190385759 157.63709426506230216
41.009497869018190385759 2203.95580445461018826 41.009497869018190385759 157.21459305618873259
42.009497869018190385759 2206.62942429104305120 42.009497869018190385759 156.79181552155066015
43.009497869018190385759 2209.21502476009663951 43.009497869018190385759 156.38754887018825457
44.009497869018218807469 2211.71712536130507942 44.009497869018218807469 155.98036563338462202
46.009497869018190385759 2216.48725605840854769 46.009497869018190385759 155.19013699130269401
48.009497869018190385759 2220.96994373350753449 48.009497869018190385759 154.42975525838883755
50.009497869018190385759 2225.19140430800098329 50.009497869018190385759 153.67699489576918381
52.009497869018190385759 2229.17456497595276232 52.009497869018190385759 152.94555555564090810
54.009497869018190385759 2232.93966340699580542 54.009497869018190385759 152.23897364569077695
56.009497869018190385759 2236.50453850115763998 56.009497869018190385759 151.54656787590846534
58.009497869018218807469 2239.88514086017767113 58.009497869018218807469 150.83469729343133281
60.009497869018190385759 2243.09561049950707456 60.009497869018190385759 150.16919483238248745
62.009497869018190385759 2246.14872852680809956 62.009497869018190385759 149.51558834138623411
64.009497869018190385759 2249.05591072065453773 64.009497869018190385759 148.87320560714931617
66.009497869018190385759 2251.82750642304154098 66.009497869018190385759 148.23111139188065977
68.009497869018190385759 2254.47291388846178961 68.009497869018190385759 147.59362921027121729
70.009497869018190385759 2257.00055473105430792 70.009497869018190385759 146.98699567047933101
72.009497869018218807469 2259.41825907253723926 72.009497869018218807469 146.38134272687909743
74.009497869018190385759 2261.73307169760028046 74.009497869018190385759 145.79358010929612988
76.009497869018190385759 2263.95143823970283847 76.009497869018190385759 145.21809197235066335
78.009497869018190385759 2266.07936731921745377 78.009497869018190385759 144.65054831400766489
80.009497869018190385759 2268.12227707944157373 80.009497869018190385759 144.09893809671481790
82.009497869018218807469 2270.08517793092050852 82.009497869018218807469 143.56148747191028292
84.009497869018190385759 2271.97277252971753114 84.009497869018190385759 143.04232965414382761
86.009497869018190385759 2273.78930989585842326 86.009497869018190385759 142.52516883203145426
88.009497869018190385759 2275.53872736752691708 88.009497869018190385759 142.02888576342195392
91.009497869018218807469 2278.04513541289225032 91.009497869018218807469 141.30187268737736872
94.009497869018190385759 2280.42020084756086362 94.009497869018190385759 140.60352748027233361
97.009497869018190385759 2282.67413055777569753 97.009497869018190385759 139.92856003043104351
99.504748934509109403734 2284.46322393745185764 99.504748934509109403734 139.49561385549938564
nan nan nan nan

