Time Pressure difference Time.1 Pressure.1 difference.1
(hr) (psi) (hr) (psi)
0.000200000000006639311 0.27881061724983619 0.000200000000006639311 0.22225785408638202
0.000399999999999067768 0.55746332691553591 0.000399999999999067768 0.58176623060094190
0.000600000000005707079 0.83598221036059628 0.000600000000005707079 0.85118148899485535
0.000799999999998135536 1.11437880241720788 0.000799999999998135536 1.12545829234950756
0.001007140329434719206 1.40259139944584033 0.001007140329434719206 1.41338395244118264
0.001267914553963578328 1.76525937953743739 0.001267914553963578328 1.77841719912611040
0.001596209851982166583 2.22157203524491464 0.001596209851982166583 2.23748045793137651
0.002009509145210586212 2.79564018172650020 0.002009509145210586212 2.81466330125151876
0.002529822128138903281 3.51774542158194992 0.002529822128138903281 3.54015582533652662
0.003184857364445292660 4.42589949116944137 0.003184857364445292660 4.45175508302598200
0.004009497869020606231 5.56778680890249777 0.004009497869020606231 5.59672243311933748
0.005047658755842121536 7.00317844675173617 0.005047658755842121536 7.03406178869208709
0.006354625877804664924 8.80692272308813529 0.006354625877804664924 8.83729582561061555
0.008000000000009777068 11.07263589325570941 0.008000000000009777068 11.09782040569590222
0.010071403294347192059 13.91723473115963294 0.010071403294347192059 13.92891291681091559
0.012679145539692626699 17.48646877642915953 0.012679145539692626699 17.47045177017576023
0.015962098519750611558 21.96161953165548297 0.015962098519750611558 21.89436236876996134
0.020095091452091651263 27.56753010650779956 0.020095091452091651263 27.41072507774835287
0.025298221281346400247 34.58210088261343174 0.025298221281346400247 34.27434206190976340
0.031848573644282396344 43.34731811513504596 0.031848573644282396344 42.79133271211802025
0.040094978690191851456 54.28174840206093421 0.040094978690191851456 53.32497195805264312
0.050476587558421215363 67.89419758326350518 0.050476587558421215363 66.29945180034144414
0.063546258777947173257 84.79785003358134077 0.063546258777947173257 82.19947617584138300
0.079999999999998294697 105.72361186483263396 0.079999999999998294697 101.56253686017009841
0.100714032943542974863 131.53050597116106246 0.100714032943542974863 124.95932941016009465
0.126791455396897845276 163.20973180199266039 0.126791455396897845276 152.95607932714079880
0.159620985197506115583 201.87734930915931386 0.159620985197506115583 186.05071890568962090
0.200950914520774404082 248.74847632900917915 0.200950914520774404082 224.57332322923181778
0.252982212813464002465 305.08355326593823520 0.252982212813464002465 268.54100233354211014
0.318485736442795541734 372.09511481239883324 0.318485736442795541734 317.46075028493123682
0.400949786901819038576 450.80279669042494106 0.400949786901819038576 370.08479055299744687
0.504765875584169521062 541.82744303991853485 0.504765875584169521062 424.14834405697530428
0.635462587779443310865 645.12638587831531822 0.635462587779443310865 476.16592213418692836
0.799999999999997157829 759.69656935198668180 0.799999999999997157829 521.42592949216088982
1.007140329435330272645 883.31265849872443141 1.007140329435330272645 554.37413154023158768
1.267914553968893187630 1012.41451604865699210 1.267914553968893187630 569.54507541446980667
1.596209851975103788391 1142.28263941878913101 1.596209851975103788391 563.00639922593052233
2.009509145207687197399 1267.59548217931069303 2.009509145207687197399 533.92499364943432738
2.529822128134711078928 1383.32128432117951888 2.529822128134711078928 485.53144574616010232
3.184857364427983839050 1485.70126910872090775 3.184857364427983839050 424.77802066721227447
4.009497869018190385759 1572.95544528570167131 4.009497869018190385759 360.50936864243664104
5.009497869018190385759 1643.24331278973727422 5.009497869018190385759 302.48147450424983163
6.009497869018190385759 1691.60922108444560763 6.009497869018190385759 261.77798808623742843
7.009497869018204596614 1727.19830038006330142 7.009497869018204596614 233.46096740046866103
8.009497869018190385759 1754.80186070544709764 8.009497869018190385759 213.53105760742943176
9.009497869018204596614 1777.10604212694602211 9.009497869018204596614 199.56374566795602732
10.009497869018190385759 1795.70781293445156734 10.009497869018190385759 189.59915971439295390
11.009497869018190385759 1811.60834374789465073 11.009497869018190385759 181.51646102558265738
12.009497869018190385759 1825.46360421011786457 12.009497869018190385759 175.35342119557031992
13.009497869018190385759 1837.72191847303997747 13.009497869018190385759 170.55428929885968614
14.009497869018204596614 1848.70053970089452378 14.009497869018204596614 166.74268812611089174
15.009497869018190385759 1858.63109383534902008 15.009497869018190385759 163.65805743408185435
16.009497869018190385759 1867.68739562889891204 16.009497869018190385759 161.11798306410133819
17.009497869018190385759 1876.00310284776992376 17.009497869018190385759 159.04080773260943715
18.009497869018190385759 1883.68317263199946865 18.009497869018190385759 157.22218973387478513
19.009497869018204596614 1890.81126614969457478 19.009497869018204596614 155.71801535844178943
20.009497869018190385759 1897.45549414864376558 20.009497869018190385759 154.33837882683923226
21.009497869018204596614 1903.67212774884274040 21.009497869018204596614 153.12304357083939976
22.009497869018190385759 1909.50783302720810752 22.009497869018190385759 152.04101481852967481
23.009497869018190385759 1915.00210937467363692 23.009497869018190385759 151.08522755141348171
24.009497869018190385759 1920.18864908889895560 24.009497869018190385759 150.19964250256290939
25.009497869018190385759 1925.09621148992710005 25.009497869018190385759 149.39023240367262702
26.009497869018204596614 1929.74994536844110371 26.009497869018204596614 148.66153401793599187
27.009497869018190385759 1934.17150360099844875 27.009497869018190385759 147.96730131178563283
28.009497869018190385759 1938.38012596848693647 28.009497869018190385759 147.31988764680349391
29.009497869018190385759 1942.39257160214651776 29.009497869018190385759 146.71747685779877202
30.009497869018190385759 1946.22388446335548906 30.009497869018190385759 146.14401951599882068
31.009497869018190385759 1949.88734404432761949 31.009497869018190385759 145.60121496261231755
32.009497869018190385759 1953.39490687764532595 32.009497869018190385759 145.08461723507622310
33.009497869018190385759 1956.75730767452978398 33.009497869018190385759 144.59417047508526366
34.009497869018190385759 1959.98418792506322461 34.009497869018190385759 144.12016935175361709
35.009497869018190385759 1963.08436153908337474 35.009497869018190385759 143.66282229825992545
36.009497869018190385759 1966.06574362816104440 36.009497869018190385759 143.22234080441359083
37.009497869018190385759 1968.93559176349867812 37.009497869018190385759 142.79614282553589533
38.009497869018190385759 1971.70054245719529717 38.009497869018190385759 142.38264384997461320
39.009497869018190385759 1974.36663425825418017 39.009497869018190385759 141.97742644325387573
40.009497869018190385759 1976.93944574428633132 40.009497869018190385759 141.57755114958675335
41.009497869018190385759 1979.42411392036024154 41.009497869018190385759 141.19809295931162296
42.009497869018190385759 1981.82535425603077783 42.009497869018190385759 140.81838659442215089
43.009497869018190385759 1984.14754234485894813 43.009497869018190385759 140.45530528555781302
44.009497869018218807469 1986.39473725479160748 44.009497869018218807469 140.08960452328108204
46.009497869018190385759 1990.67890289428146389 46.009497869018190385759 139.37988174822092446
48.009497869018190385759 1994.70490925127319315 48.009497869018190385759 138.69696517844576533
50.009497869018190385759 1998.49630145624769284 50.009497869018190385759 138.02089353909565261
52.009497869018190385759 2002.07367095695508397 52.009497869018190385759 137.36397080734505494
54.009497869018190385759 2005.45519367652445908 54.009497869018190385759 136.72937311342201383
56.009497869018190385759 2008.65689114715200958 56.009497869018190385759 136.10750734163360676
58.009497869018218807469 2011.69308897629935018 58.009497869018218807469 135.46815976755897282
60.009497869018190385759 2014.57648664164798902 60.009497869018190385759 134.87045648484752292
62.009497869018190385759 2017.31856315410345815 62.009497869018190385759 134.28343725030669020
64.009497869018190385759 2019.92957129066826383 64.009497869018190385759 133.70649833349870050
66.009497869018190385759 2022.41880603677986983 66.009497869018190385759 133.12981854230565659
68.009497869018190385759 2024.79470818400750431 68.009497869018190385759 132.55728092611488478
70.009497869018190385759 2027.06484138043765597 70.009497869018190385759 132.01244919466643069
72.009497869018218807469 2029.23623804101907808 72.009497869018218807469 131.46849815952947438
74.009497869018190385759 2031.31522525119612510 74.009497869018190385759 130.94061484346971724
76.009497869018190385759 2033.30759198471992022 76.009497869018190385759 130.42375552476534040
78.009497869018190385759 2035.21873472369429692 78.009497869018190385759 129.91403132759404571
80.009497869018190385759 2037.05351962898953389 80.009497869018190385759 129.41861732546774988
82.009497869018218807469 2038.81644666718102599 82.009497869018218807469 128.93592038361916252
84.009497869018190385759 2040.51173940336548185 84.009497869018190385759 128.46965263844018068
86.009497869018190385759 2042.14321398153492737 86.009497869018190385759 128.00517844163681502
88.009497869018190385759 2043.71440661694782648 88.009497869018190385759 127.55945504221543274
91.009497869018218807469 2045.96547014294583278 91.009497869018218807469 126.90650764147835616
94.009497869018190385759 2048.09857180679091471 94.009497869018190385759 126.27930752249662305
97.009497869018190385759 2050.12287865108555707 97.009497869018190385759 125.67310351258552714
99.504748934509109403734 2051.72970514489634297 99.504748934509109403734 125.28426445467101757
nan nan nan nan

