Time Pressure difference Time.1 Pressure.1 difference.1
(hr) (psi) (hr) (psi)
0.000200000000006639311 0.58175707897801632 0.000200000000006639311 0.46375594031755529
0.000399999999999067768 1.16318467317599894 0.000399999999999067768 1.21389431400017433
0.000600000000005707079 1.74433302997628892 0.000600000000005707079 1.77604734569374290
0.000799999999998135536 2.32522621758097969 0.000799999999998135536 2.34834431746956973
0.001007140329434719206 2.92660115884370864 0.001007140329434719206 2.94912054554145264
0.001267914553963578328 3.68333225760199623 0.001267914553963578328 3.71078693190791364
0.001596209851982166583 4.63545926160058297 0.001596209851982166583 4.66865325401203624
0.002009509145210586212 5.83329100605021988 0.002009509145210586212 5.87298402261137742
0.002529822128138903281 7.34001208861427745 0.002529822128138903281 7.38677290122457464
0.003184857364445292660 9.23493655023116133 0.003184857364445292660 9.28888597920943759
0.004009497869020606231 11.61756113260550904 0.004009497869020606231 11.67793725597139520
0.005047658755842121536 14.61260219187899523 0.005047658755842121536 14.67704235909184618
0.006354625877804664924 18.37623577145852494 0.006354625877804664924 18.43961128985618103
0.008000000000009777068 23.10379847577832990 0.008000000000009777068 23.15634765248189453
0.010071403294347192059 29.03924500621069527 0.010071403294347192059 29.06361232492784907
0.012679145539692626699 36.48669156634024802 0.012679145539692626699 36.45327100702345291
0.015962098519750611558 45.82439418694681166 0.015962098519750611558 45.68405759931404475
0.020095091452091651263 57.52150311775806557 0.020095091452091651263 57.19431889357043985
0.025298221281346400247 72.15787616999041632 0.025298221281346400247 71.51571672022366499
0.031848573644282396344 90.44709063426685702 0.031848573644282396344 89.28698974856865789
0.040094978690191851456 113.26251382997192252 0.040094978690191851456 111.26613551844418737
0.050476587558421215363 141.66580331552594885 0.050476587558421215363 138.33825912966767646
0.063546258777947173257 176.93640947305479472 0.063546258777947173257 171.51472790123321488
0.079999999999998294697 220.59941699557617767 0.079999999999998294697 211.91705452316088554
0.100714032943542974863 274.44723484728825724 0.100714032943542974863 260.73603360508030846
0.126791455396897845276 340.54806725251597754 0.126791455396897845276 319.15313268558628579
0.159620985197506115583 421.23064826000700123 0.159620985197506115583 388.20732094052846151
0.200950914520774404082 519.03040284769372192 0.200950914520774404082 468.58732220069560981
0.252982212813464002465 636.57732457579345464 0.252982212813464002465 560.32883770491332598
0.318485736442795541734 776.40144851900538470 0.318485736442795541734 662.40317746019979950
0.400949786901819038576 940.63031309434927607 0.400949786901819038576 772.20677192998573446
0.504765875584169521062 1130.55935129821796181 0.504765875584169521062 885.01400745022601768
0.635462587779443310865 1346.09953351923127229 0.635462587779443310865 993.55217782625868495
0.799999999999997157829 1585.15791634936931587 0.799999999999997157829 1087.99022302991193101
1.007140329435330272645 1843.09118892718925053 1.007140329435330272645 1156.73885954215484162
1.267914553968893187630 2112.47088572540633322 1.267914553968893187630 1188.39405287974454950
1.596209851975103788391 2383.44944762308523423 1.596209851975103788391 1174.75066584753835741
2.009509145207687197399 2644.92311057712868205 2.009509145207687197399 1114.07035988344637190
2.529822128134711078928 2886.39276937464001094 2.529822128134711078928 1013.09397187034585386
3.184857364427983839050 3100.01548390148082035 3.184857364427983839050 886.32786998919812049
4.009497869018190385759 3282.07718284986731305 4.009497869018190385759 752.22701098824848032
5.009497869018190385759 3428.73753922395962945 5.009497869018190385759 631.14791247304674471
6.009497869018190385759 3529.65625533739603270 6.009497869018190385759 546.21735424561177297
7.009497869018204596614 3603.91525959899809095 7.009497869018204596614 487.13198869530623369
8.009497869018190385759 3661.51194218838054439 8.009497869018190385759 445.54689333609900359
9.009497869018204596614 3708.05111476637375745 9.009497869018204596614 416.40315887134704553
10.009497869018190385759 3746.86495892890070536 10.009497869018190385759 395.61138101600204209
11.009497869018190385759 3780.04248441724848817 11.009497869018190385759 378.74628733397696578
12.009497869018190385759 3808.95241594887238534 12.009497869018190385759 365.88669079314524879
13.009497869018190385759 3834.53021197807447606 13.009497869018190385759 355.87297976090422935
14.009497869018204596614 3857.43784254007550771 14.009497869018204596614 347.91981791090006482
15.009497869018190385759 3878.15861071913150226 15.009497869018190385759 341.48352879529318216
16.009497869018190385759 3897.05519267044837761 16.009497869018190385759 336.18349302031890602
17.009497869018190385759 3914.40647430027229348 17.009497869018190385759 331.84932717938505675
18.009497869018190385759 3930.43145573064930431 18.009497869018190385759 328.05465857904022187
19.009497869018204596614 3945.30470160786990164 19.009497869018204596614 324.91609771806207618
20.009497869018190385759 3959.16832958179702473 20.009497869018190385759 322.03739343271826101
21.009497869018204596614 3972.13975312370484971 21.009497869018204596614 319.50151479407986699
22.009497869018190385759 3984.31634413736810529 22.009497869018190385759 317.24378912881269343
23.009497869018190385759 3995.78052075491632422 23.009497869018190385759 315.24947480130748545
24.009497869018190385759 4006.60258421832941167 24.009497869018190385759 313.40164211728802002
25.009497869018190385759 4016.84254278047455955 25.009497869018190385759 311.71275358258856158
26.009497869018204596614 4026.55287108220909431 26.009497869018204596614 310.19227545832018222
27.009497869018190385759 4035.77874930476991722 27.009497869018190385759 308.74371228936763600
28.009497869018190385759 4044.56032254320098218 28.009497869018190385759 307.39284019437502593
29.009497869018190385759 4052.93255985044879708 29.009497869018190385759 306.13586962269056357
30.009497869018190385759 4060.92685146234407512 30.009497869018190385759 304.93931236323334133
31.009497869018190385759 4068.57090593129805711 31.009497869018190385759 303.80671420557018791
32.009497869018190385759 4075.88967136559404025 32.009497869018190385759 302.72879835020381734
33.009497869018190385759 4082.90554646118289384 33.009497869018190385759 301.70544824502860592
34.009497869018190385759 4089.63864883468477274 34.009497869018190385759 300.71641306530085558
35.009497869018190385759 4096.10736930095299613 35.009497869018190385759 299.76212772084687685
36.009497869018190385759 4102.32822327189387579 36.009497869018190385759 298.84303349935845517
37.009497869018190385759 4108.31635415727032523 37.009497869018190385759 297.95374279119283756
38.009497869018190385759 4114.08560948531248869 38.009497869018190385759 297.09094940636492765
39.009497869018190385759 4119.64858909408849286 39.009497869018190385759 296.24543607114759425
40.009497869018190385759 4125.01693306046581711 40.009497869018190385759 295.41106941361533700
41.009497869018190385759 4130.20136009054385795 41.009497869018190385759 294.61930441360840405
42.009497869018190385759 4135.21170932825407363 42.009497869018190385759 293.82702158060027386
43.009497869018190385759 4140.05711074345163070 43.009497869018190385759 293.06942804359675847
44.009497869018218807469 4144.74603385402679123 44.009497869018218807469 292.30636884111487461
46.009497869018190385759 4153.68523320329131820 46.009497869018190385759 290.82548460300426996
48.009497869018190385759 4162.08576587056722929 48.009497869018190385759 289.40053331263754899
50.009497869018190385759 4169.99676035199081525 50.009497869018190385759 287.98986442933687613
52.009497869018190385759 4177.46118208630377922 52.009497869018190385759 286.61915102786326770
54.009497869018190385759 4184.51695635788200889 54.009497869018190385759 285.29502031725968436
56.009497869018190385759 4191.19751316972997301 56.009497869018190385759 283.99745561731907628
58.009497869018218807469 4197.53274386397970375 58.009497869018218807469 282.66341396275737452
60.009497869018190385759 4203.54914675376767264 60.009497869018190385759 281.41626591912961430
62.009497869018190385759 4209.27067356632323936 62.009497869018190385759 280.19141085959512338
64.009497869018190385759 4214.71871740948427032 64.009497869018190385759 278.98758906004661640
66.009497869018190385759 4219.91267289465395152 66.009497869018190385759 277.78430794349748112
68.009497869018190385759 4224.87015230036195135 68.009497869018190385759 276.58966975329644811
70.009497869018190385759 4229.60693768634610024 70.009497869018190385759 275.45284175245319602
72.009497869018218807469 4234.13770265872335585 72.009497869018218807469 274.31785138361527743
74.009497869018190385759 4238.47564910622713796 74.009497869018190385759 273.21638738980698236
76.009497869018190385759 4242.63285611139963294 76.009497869018190385759 272.13792570689838612
78.009497869018190385759 4246.62058379660356877 78.009497869018190385759 271.07435193429324727
80.009497869018190385759 4250.44898573332375236 80.009497869018190385759 270.04063734478194192
82.009497869018218807469 4254.12745140405695565 82.009497869018218807469 269.03345775567100873
84.009497869018190385759 4257.66479356105264742 84.009497869018190385759 268.06055878886468236
86.009497869018190385759 4261.06897484505316243 86.009497869018190385759 267.09140218120637655
88.009497869018190385759 4264.34737380670594575 88.009497869018190385759 266.16137037166743085
91.009497869018218807469 4269.04436904453541501 91.009497869018218807469 264.79895176535330847
94.009497869018190385759 4273.49522893416906300 94.009497869018190385759 263.49025659171678626
97.009497869018190385759 4277.71908112569690275 97.009497869018190385759 262.22537120984264902
99.504748934509109403734 4281.07183252621780412 99.504748934509109403734 261.41403239944793313
nan nan nan nan

