Time Pressure difference Time.1 Pressure.1 difference.1
(hr) (psi) (hr) (psi)
0.000200000000006639311 0.25301023177298565 0.000200000000006639311 0.20169070937988098
0.000399999999999067768 0.50587716830544160 0.000399999999999067768 0.52793114657518314
0.000600000000005707079 0.75862266253618282 0.000600000000005707079 0.77241544075951063
0.000799999999998135536 1.01125718189501845 0.000799999999998135536 1.02131140559477696
0.001007140329434719206 1.27279935949712075 0.001007140329434719206 1.28259319863319265
0.001267914553963578328 1.60190701904292809 0.001267914553963578328 1.61384724935623147
0.001596209851982166583 2.01599372750583283 0.001596209851982166583 2.03043002749593615
0.002009509145210586212 2.53693914998464498 0.002009509145210586212 2.55420192113570632
0.002529822128138903281 3.19222271092809784 0.002529822128138903281 3.21255931612628087
0.003184857364445292660 4.01633864273286623 0.003184857364445292660 4.03980162758178629
0.004009497869020606231 5.05255877583987800 0.004009497869020606231 5.07881677512918994
0.005047658755842121536 6.35512312779859112 0.005047658755842121536 6.38314860824595343
0.006354625877804664924 7.99195375468296465 0.006354625877804664924 8.01951621189739505
0.008000000000009777068 10.04800391507383672 0.008000000000009777068 10.07085792039269911
0.010071403294347192059 12.62937121872396595 0.010071403294347192059 12.63996873644930830
0.012679145539692626699 15.86831793443123928 0.012679145539692626699 15.85378309890576531
0.015962098519750611558 19.92935026156198930 0.015962098519750611558 19.86831689583901195
0.020095091452091651263 25.01650493247275264 0.020095091452091651263 24.87421021980745905
0.025298221281346400247 31.38196617407308864 0.025298221281346400247 31.10268652782259835
0.031848573644282396344 39.33607375224195835 0.031848573644282396344 38.83153774472800279
0.040094978690191851456 49.25866123649709039 0.040094978690191851456 48.39042231417315065
0.050476587558421215363 61.61145094123016008 0.050476587558421215363 60.16427864866805919
0.063546258777947173257 76.95088480659320851 0.063546258777947173257 74.59295748494264444
0.079999999999998294697 95.94023285644513521 0.079999999999998294697 92.16421255370659082
0.100714032943542974863 119.35902631412825770 0.100714032943542974863 113.39592877817513283
0.126791455396897845276 148.10674169494259900 0.126791455396897845276 138.80193467298747123
0.159620985197506115583 183.19616176114752193 0.159620985197506115583 168.83408521590936857
0.200950914520774404082 225.72996060901132864 0.200950914520774404082 203.79191122891481314
0.252982212813464002465 276.85194087416482489 0.252982212813464002465 243.69093943103524680
0.318485736442795541734 337.66243254617683078 0.318485736442795541734 288.08378533319131520
0.400949786901819038576 409.08671699668411748 0.400949786901819038576 335.83813829286935970
0.504765875584169521062 491.68818711682149569 0.504765875584169521062 384.89879580095663414
0.635462587779443310865 585.42812330450112768 0.635462587779443310865 432.10280695162038000
0.799999999999997157829 689.39628980001191394 0.799999999999997157829 473.17457482273704272
1.007140329435330272645 801.57327816003657972 1.007140329435330272645 503.07383877083702828
1.267914553968893187630 918.72839665310948476 1.267914553968893187630 516.84090425671286084
1.596209851975103788391 1036.57887278600560421 1.596209851975103788391 510.90729959606824195
2.009509145207687197399 1150.29560173883714924 2.009509145207687197399 484.51700916247170881
2.529822128134711078928 1255.31244905563767134 2.529822128134711078928 440.60167016964976483
3.184857364427983839050 1348.21846510164527899 3.184857364427983839050 385.47020382935079397
4.009497869018190385759 1427.39837422941309342 4.009497869018190385759 327.14880020089771051
5.009497869018190385759 1491.18199130770199190 5.009497869018190385759 274.49065149042371559
6.009497869018190385759 1535.07224838707907111 6.009497869018190385759 237.55375635288410763
7.009497869018204596614 1567.36800989713219678 7.009497869018204596614 211.85711668579844513
8.009497869018190385759 1592.41721090882356293 8.009497869018190385759 193.77146720196580532
9.009497869018204596614 1612.65742330325838338 9.009497869018204596614 181.09665278524965970
10.009497869018190385759 1629.53783621514435254 10.009497869018190385759 172.05416284529988502
11.009497869018190385759 1643.96697462495490072 11.009497869018190385759 164.71941537843918013
12.009497869018190385759 1656.54010650709187757 12.009497869018190385759 159.12668669687576539
13.009497869018190385759 1667.66406930090784044 13.009497869018190385759 154.77165357269655033
14.009497869018204596614 1677.62675841514010244 14.009497869018204596614 151.31276773235137512
15.009497869018190385759 1686.63836574909305455 15.009497869018190385759 148.51358047749519642
16.009497869018190385759 1694.85662170503064772 16.009497869018190385759 146.20855776563226414
17.009497869018190385759 1702.40281571857326526 17.009497869018190385759 144.32359865884558303
18.009497869018190385759 1709.37219247799339428 18.009497869018190385759 142.67327068387444911
19.009497869018204596614 1715.84067137166289285 19.009497869018204596614 141.30828856407850935
20.009497869018190385759 1721.87006036175444024 20.009497869018190385759 140.05631989062425191
21.009497869018204596614 1727.51142338999488857 21.009497869018204596614 138.95344849413484667
22.009497869018190385759 1732.80710817991393924 22.009497869018190385759 137.97154777562096228
23.009497869018190385759 1737.79295895492782620 23.009497869018190385759 137.10420649441698515
24.009497869018190385759 1742.49955021798587040 24.009497869018190385759 136.30057110680334631
25.009497869018190385759 1746.95297997891884734 25.009497869018190385759 135.56606164392979963
26.009497869018204596614 1751.17606982688357675 26.009497869018204596614 134.90479504911203890
27.009497869018190385759 1755.18846893941349663 27.009497869018190385759 134.27480477248607826
28.009497869018190385759 1759.00763669976117853 28.009497869018190385759 133.68730102874107502
29.009497869018190385759 1762.64878139418647152 29.009497869018190385759 133.14063571573382205
30.009497869018190385759 1766.12555485629854957 30.009497869018190385759 132.62024457571237690
31.009497869018190385759 1769.45000772977778070 31.009497869018190385759 132.12766969741537082
32.009497869018190385759 1772.63299012180345926 32.009497869018190385759 131.65887653571095939
33.009497869018190385759 1775.68424338225963766 33.009497869018190385759 131.21381440127137807
34.009497869018190385759 1778.61251680363966443 34.009497869018190385759 130.78367606845702653
35.009497869018190385759 1781.42580868024310803 35.009497869018190385759 130.36865068260007661
36.009497869018190385759 1784.13130168048041924 36.009497869018190385759 129.96893016281114797
37.009497869018190385759 1786.73558177941367830 37.009497869018190385759 129.58217139988929034
38.009497869018190385759 1789.24467136414159540 38.009497869018190385759 129.20693650863367452
39.009497869018190385759 1791.66405019256512787 39.009497869018190385759 128.83921683208708941
40.009497869018190385759 1793.99878061571052967 40.009497869018190385759 128.47634492380410620
41.009497869018190385759 1796.25352427399866428 41.009497869018190385759 128.13200077501707597
42.009497869018190385759 1798.43256028009955116 42.009497869018190385759 127.78743141702787511
43.009497869018190385759 1800.53985932190175845 43.009497869018190385759 127.45794867704351816
44.009497869018218807469 1802.57910485210913976 44.009497869018218807469 127.12608888082820613
46.009497869018190385759 1806.46682531301962626 46.009497869018190385759 126.48204194465419903
48.009497869018190385759 1810.12027585787177486 48.009497869018190385759 125.86232063954480509
50.009497869018190385759 1813.56082281402768785 50.009497869018190385759 125.24881085338829223
52.009497869018190385759 1816.80715215198324586 52.009497869018190385759 124.65267798636686791
54.009497869018190385759 1819.87575784377122545 54.009497869018190385759 124.07680425815013336
56.009497869018190385759 1822.78117883204254213 56.009497869018190385759 123.51248427419885445
58.009497869018218807469 1825.53641507102952346 58.009497869018218807469 122.93230020697889415
60.009497869018190385759 1828.15299086286881902 60.009497869018190385759 122.38990678027955994
62.009497869018190385759 1830.64132298163440282 62.009497869018190385759 121.85720872863652176
64.009497869018190385759 1833.01071543988996382 64.009497869018190385759 121.33365818920479740
66.009497869018190385759 1835.26960309009268713 66.009497869018190385759 120.81034279659976960
68.009497869018190385759 1837.42564563563655611 68.009497869018190385759 120.29078627325053219
70.009497869018190385759 1839.48570680493457985 70.009497869018190385759 119.79637180650324524
72.009497869018218807469 1841.45616825214870005 72.009497869018218807469 119.30275653879691333
74.009497869018190385759 1843.34277157123483448 74.009497869018190385759 118.82372212661132949
76.009497869018190385759 1845.15077003986516502 76.009497869018190385759 118.35469158068255524
78.009497869018190385759 1846.88506076418821067 78.009497869018190385759 117.89213589130920923
80.009497869018190385759 1848.55005960362018413 80.009497869018190385759 117.44256616997668630
82.009497869018218807469 1850.14985010991927084 82.009497869018218807469 117.00453670632903425
84.009497869018190385759 1851.68826501081525748 84.009497869018190385759 116.58141612562927492
86.009497869018190385759 1853.16876731458683025 86.009497869018190385759 116.15992312315698598
88.009497869018190385759 1854.59456600463317955 88.009497869018190385759 115.75544576965221211
91.009497869018218807469 1856.63732215956883920 91.009497869018218807469 115.16292036719228520
94.009497869018190385759 1858.57303232616231981 94.009497869018190385759 114.59375966220586918
97.009497869018190385759 1860.41001525352226054 97.009497869018190385759 114.04365214276415941
99.504748934509109403734 1861.86815034044343520 99.504748934509109403734 113.69079520662684502
nan nan nan nan

