Time Pressure difference Time.1 Pressure.1 difference.1
(hr) (psi) (hr) (psi)
0.000200000000006639311 0.59340886596756171 0.000200000000006639311 0.47304432824952353
0.000399999999999067768 1.18648164803217071 0.000399999999999067768 1.23820693259245251
0.000600000000005707079 1.77926959996150780 0.000600000000005707079 1.81161910941293103
0.000799999999998135536 2.37179727201035551 0.000799999999998135536 2.39537839535880259
0.001007140329434719206 2.98521691882054974 0.001007140329434719206 3.00818733758377066
0.001267914553963578328 3.75710429137371005 0.001267914553963578328 3.78510884470721409
0.001596209851982166583 4.72830107799887855 0.001596209851982166583 4.76215990001513934
0.002009509145210586212 5.95012373006267126 0.002009509145210586212 5.99061174266368024
0.002529822128138903281 7.48702234503859732 0.002529822128138903281 7.53471971183565259
0.003184857364445292660 9.41989951404122827 0.003184857364445292660 9.47492947521649320
0.004009497869020606231 11.85024476044024055 0.004009497869020606231 11.91183013377339783
0.005047658755842121536 14.90527233592235312 0.005047658755842121536 14.97100315026106898
0.006354625877804664924 18.74428627331892727 0.006354625877804664924 18.80893111540408924
0.008000000000009777068 23.56653549818304683 0.008000000000009777068 23.62013716197366264
0.010071403294347192059 29.62086078602035144 0.010071403294347192059 29.64571614831696422
0.012679145539692626699 37.21746936595221200 0.012679145539692626699 37.18337943920990796
0.015962098519750611558 46.74219321215032608 0.015962098519750611558 46.59904587741188919
0.020095091452091651263 58.67357900280615723 0.020095091452091651263 58.33984173264052231
0.025298221281346400247 73.60309829642798718 0.025298221281346400247 72.94807728400496671
0.031848573644282396344 92.25862034654116428 0.031848573644282396344 91.07528424997059346
0.040094978690191851456 115.53100480796850036 0.040094978690191851456 113.49464180922846879
0.050476587558421215363 144.50317276676679512 0.050476587558421215363 141.10898248848792491
0.063546258777947173257 180.48020022072685720 0.063546258777947173257 174.94992989067139888
0.079999999999998294697 225.01771719291244267 0.079999999999998294697 216.16145904866053229
0.100714032943542974863 279.94403211175472279 0.100714032943542974863 265.95821453565412185
0.126791455396897845276 347.36877246215152581 0.126791455396897845276 325.54532704552650557
0.159620985197506115583 429.66731360427036179 0.159620985197506115583 395.98257486494532031
0.200950914520774404082 529.42586155995081754 0.200950914520774404082 477.97247600729036776
0.252982212813464002465 649.32708501078786867 0.252982212813464002465 571.55144675765836837
0.318485736442795541734 791.95169212310554485 0.318485736442795541734 675.67019389001779928
0.400949786901819038576 959.46983295603877195 0.400949786901819038576 787.67300198294674374
0.504765875584169521062 1153.20288623122928584 0.504765875584169521062 902.73960988842793540
0.635462587779443310865 1373.06003919772820154 0.635462587779443310865 1013.45164919903061218
0.799999999999997157829 1616.90642969542250285 0.799999999999997157829 1109.78115739674831275
1.007140329435330272645 1880.00574778982263524 1.007140329435330272645 1179.90673369607497989
1.267914553968893187630 2154.78074609758914448 1.267914553968893187630 1212.19593662840884463
1.596209851975103788391 2431.18663255401997958 1.596209851975103788391 1198.27929148683119820
2.009509145207687197399 2697.89725013089127970 2.009509145207687197399 1136.38364320013943143
2.529822128134711078928 2944.20321110746590421 2.529822128134711078928 1033.38483825973776220
3.184857364427983839050 3162.10449216274082573 3.184857364427983839050 904.07978727081297166
4.009497869018190385759 3347.81263429464297587 4.009497869018190385759 767.29307415539506110
5.009497869018190385759 3497.41039408681444911 5.009497869018190385759 643.78892931800032784
6.009497869018190385759 3600.35037203943238637 6.009497869018190385759 557.15732986712623642
7.009497869018204596614 3676.09668110741858982 7.009497869018204596614 496.88856643741536345
8.009497869018190385759 3734.84694532233925202 8.009497869018190385759 454.47057932566320915
9.009497869018204596614 3782.31823294481318953 9.009497869018204596614 424.74313630224668259
10.009497869018190385759 3821.90946454407185229 10.009497869018190385759 403.53492798914084005
11.009497869018190385759 3855.75148982760811123 11.009497869018190385759 386.33204988429980631
12.009497869018190385759 3885.24044716959406287 12.009497869018190385759 373.21489346997509529
13.009497869018190385759 3911.33053095903733265 13.009497869018190385759 363.00062170175209530
14.009497869018204596614 3934.69696957235100854 14.009497869018204596614 354.88816905646888245
15.009497869018190385759 3955.83274598389243693 15.009497869018190385759 348.32297000149361565
16.009497869018190385759 3975.10780024896985196 16.009497869018190385759 342.91678186478878843
17.009497869018190385759 3992.80660397152223595 17.009497869018190385759 338.49580869656875848
18.009497869018190385759 4009.15254354213675470 18.009497869018190385759 334.62513815000812656
19.009497869018204596614 4024.32367989472277259 19.009497869018204596614 331.42371627035521442
20.009497869018190385759 4038.46497709845743884 20.009497869018190385759 328.48735553294437750
21.009497869018204596614 4051.69620025350741344 21.009497869018204596614 325.90068676420446536
22.009497869018190385759 4064.11667148775904934 22.009497869018190385759 323.59774198690053026
23.009497869018190385759 4075.81045965415660248 23.009497869018190385759 321.56348431091879547
24.009497869018190385759 4086.84927403100027732 24.009497869018190385759 319.67864210246978018
25.009497869018190385759 4097.29432475318753859 25.009497869018190385759 317.95592747408534251
26.009497869018204596614 4107.19913745581561670 26.009497869018204596614 316.40499628295032153
27.009497869018190385759 4116.60979721645344398 27.009497869018190385759 314.92742040388998248
28.009497869018190385759 4125.56725318068947672 28.009497869018190385759 313.54949221543552085
29.009497869018190385759 4134.10717478307560668 29.009497869018190385759 312.26734626749413337
30.009497869018190385759 4142.26158096230574301 30.009497869018190385759 311.04682362658854800
31.009497869018190385759 4150.05873523464288155 31.009497869018190385759 309.89154109953011584
32.009497869018190385759 4157.52408538436156960 32.009497869018190385759 308.79203608540103687
33.009497869018190385759 4164.68047872220722638 33.009497869018190385759 307.74818969771871480
34.009497869018190385759 4171.54843579274711374 34.009497869018190385759 306.73934551582192398
35.009497869018190385759 4178.14671575333341025 35.009497869018190385759 305.76594716017712017
36.009497869018190385759 4184.49216479665301449 36.009497869018190385759 304.82844475685635643
37.009497869018190385759 4190.60022963395385887 37.009497869018190385759 303.92134278987197149
38.009497869018190385759 4196.48503514024014294 38.009497869018190385759 303.04126885084144760
39.009497869018190385759 4202.15943351085115864 39.009497869018190385759 302.17882105683582949
40.009497869018190385759 4207.63529795724207361 40.009497869018190385759 301.32774319300108345
41.009497869018190385759 4212.92356186631968740 41.009497869018190385759 300.52012023877364300
42.009497869018190385759 4218.03426144641798601 42.009497869018190385759 299.71196908006868398
43.009497869018190385759 4222.97670952801308886 43.009497869018190385759 298.93920199582902342
44.009497869018218807469 4227.75954526169061864 44.009497869018218807469 298.16085977641620275
46.009497869018190385759 4236.87778436902317480 46.009497869018190385759 296.65031548203438660
48.009497869018190385759 4245.44656804823262064 48.009497869018190385759 295.19682439472188662
50.009497869018190385759 4253.51600877105829568 50.009497869018190385759 293.75790177126924618
52.009497869018190385759 4261.12993251435545972 52.009497869018190385759 292.35973488249857155
54.009497869018190385759 4268.32702415331914381 54.009497869018190385759 291.00908367125344967
56.009497869018190385759 4275.14138324752093467 56.009497869018190385759 289.68553055099931726
58.009497869018218807469 4281.60349982119805645 58.009497869018218807469 288.32476989334196560
60.009497869018190385759 4287.74040291192613950 60.009497869018190385759 287.05264320506358899
62.009497869018190385759 4293.57652396679350204 62.009497869018190385759 285.80325599841393114
64.009497869018190385759 4299.13368456789976335 64.009497869018190385759 284.57532331875995624
66.009497869018190385759 4304.43166777380247368 66.009497869018190385759 283.34794215123565664
68.009497869018190385759 4309.48843861252862553 68.009497869018190385759 282.12937701588037953
70.009497869018190385759 4314.32009523657325190 70.009497869018190385759 280.96977992775271105
72.009497869018218807469 4318.94160514402028639 72.009497869018218807469 279.81205727684937301
74.009497869018190385759 4323.36643463911241270 74.009497869018190385759 278.68853248774303211
76.009497869018190385759 4327.60690473165686853 76.009497869018190385759 277.58847071390351857
78.009497869018190385759 4331.67450106863907422 78.009497869018190385759 276.50359503455086951
80.009497869018190385759 4335.57958058349049679 80.009497869018190385759 275.44917657629400765
82.009497869018218807469 4339.33172081701468414 82.009497869018218807469 274.42182457767302139
84.009497869018190385759 4342.93991102865584253 84.009497869018190385759 273.42943979465024995
86.009497869018190385759 4346.41227333980350522 86.009497869018190385759 272.44087232503596852
88.009497869018190385759 4349.75633408323483309 88.009497869018190385759 271.49221326895400352
91.009497869018218807469 4354.54740361767289869 91.009497869018218807469 270.10250730857922008
94.009497869018190385759 4359.08740805445268052 94.009497869018190385759 268.76760078668678489
97.009497869018190385759 4363.39585814395195484 97.009497869018190385759 267.47738150589094630
99.504748934509109403734 4366.81576050242165365 99.504748934509109403734 266.64979270501623887
nan nan nan nan

