Time Pressure difference Time.1 Pressure.1 difference.1
(hr) (psi) (hr) (psi)
0.000200000000006639311 0.66248731740558087 0.000200000000006639311 0.52811119956047781
0.000399999999999067768 1.32459942753661686 0.000399999999999067768 1.38234602853238742
0.000600000000005707079 1.98639355058816314 0.000600000000005707079 2.02250885146240256
0.000799999999998135536 2.64789709469879808 0.000799999999998135536 2.67422328570211354
0.001007140329434719206 3.33272463868325008 0.001007140329434719206 3.35836903326322789
0.001267914553963578328 4.19446706302029870 0.001267914553963578328 4.22573161344592219
0.001596209851982166583 5.27872041807448333 0.001596209851982166583 5.31652072989067381
0.002009509145210586212 6.64277487956505741 0.002009509145210586212 6.68797608297375756
0.002529822128138903281 8.35858315098278126 0.002529822128138903281 8.41183294617276189
0.003184857364445292660 10.51646565662947808 0.003184857364445292660 10.57790163011546625
0.004009497869020606231 13.22972626831757736 0.004009497869020606231 13.29848076645669508
0.005047658755842121536 16.64038818989368096 0.005047658755842121536 16.71377069790716874
0.006354625877804664924 20.92629996291986672 0.006354625877804664924 20.99847008115238722
0.008000000000009777068 26.30990498815386758 0.008000000000009777068 26.36974639681772459
0.010071403294347192059 33.06901148060617146 0.010071403294347192059 33.09676024412384976
0.012679145539692626699 41.54993774936600914 0.012679145539692626699 41.51187943002957326
0.015962098519750611558 52.18343029014257439 0.015962098519750611558 52.02361924042056529
0.020095091452091651263 65.50374317844838856 0.020095091452091651263 65.13115570712743363
0.025298221281346400247 82.17120090316505809 0.025298221281346400247 81.43992919785127071
0.031848573644282396344 102.99840364073880039 0.031848573644282396344 101.67731593685356017
0.040094978690191851456 128.97991560609105477 0.040094978690191851456 126.70650053316389005
0.050476587558421215363 161.32472022769476894 0.050476587558421215363 157.53541383006506749
0.063546258777947173257 201.48981679621118701 0.063546258777947173257 195.31577025662610936
0.079999999999998294697 251.21192550569190871 0.079999999999998294697 241.32471444983698916
0.100714032943542974863 312.53218732251997380 0.100714032943542974863 296.91828719548487925
0.126791455396897845276 387.80581049070491417 0.126791455396897845276 363.44190789374346195
0.159620985197506115583 479.68468671668898651 0.159620985197506115583 442.07872313113114160
0.200950914520774404082 591.05608106833233251 0.200950914520774404082 533.61303071781651397
0.252982212813464002465 724.91495044682631033 0.252982212813464002465 638.08548614178960179
0.318485736442795541734 884.14242206169978999 0.318485736442795541734 754.32464843822458533
0.400949786901819038576 1071.16127213605454926 0.400949786901819038576 879.36565158264477304
0.504765875584169521062 1287.44670047694057757 0.504765875584169521062 1007.82711005776809543
0.635462587779443310865 1532.89732286310163545 0.635462587779443310865 1131.42708662332165659
0.799999999999997157829 1805.12975881845204640 0.799999999999997157829 1238.97026828585103431
1.007140329435330272645 2098.85634676114796093 1.007140329435330272645 1317.25913046574419241
1.267914553968893187630 2405.61777544695769393 1.267914553968893187630 1353.30710456691917898
1.596209851975103788391 2714.19994321598869647 1.596209851975103788391 1337.77042920549433802
2.009509145207687197399 3011.95822034248158161 2.009509145207687197399 1268.66953714910368944
2.529822128134711078928 3286.93654423778752971 2.529822128134711078928 1153.68068899684612916
3.184857364427983839050 3530.20361256878231870 3.184857364427983839050 1009.32329686895809573
4.009497869018190385759 3737.52995357438385327 4.009497869018190385759 856.61330578919285017
5.009497869018190385759 3904.54231934516747060 5.009497869018190385759 718.73210061308316199
6.009497869018190385759 4019.46549248722021730 6.009497869018190385759 622.01575676610445953
7.009497869018204596614 4104.02939433591200213 7.009497869018204596614 554.73113447991954672
8.009497869018190385759 4169.61874961652483762 8.009497869018190385759 507.37528912093677036
9.009497869018204596614 4222.61614785984784248 9.009497869018204596614 474.18728821400895868
10.009497869018190385759 4266.81617640544391179 10.009497869018190385759 450.51024218703520319
11.009497869018190385759 4304.59773618902727321 11.009497869018190385759 431.30478500407105003
12.009497869018190385759 4337.51948940672809840 12.009497869018190385759 416.66066648260886041
13.009497869018190385759 4366.64670777474566421 13.009497869018190385759 405.25735606535016586
14.009497869018204596614 4392.73322269227446668 14.009497869018204596614 396.20053656234114214
15.009497869018190385759 4416.32940505354599736 15.009497869018190385759 388.87108572396761019
16.009497869018190385759 4437.84825946448836476 16.009497869018190385759 382.83556572843184540
17.009497869018190385759 4457.60737273679114878 17.009497869018190385759 377.89994911987196247
18.009497869018190385759 4475.85613556737735053 18.009497869018190385759 373.57869560646065565
19.009497869018204596614 4492.79333688106544287 19.009497869018204596614 370.00459768752136824
20.009497869018190385759 4508.58081594722534646 20.009497869018190385759 366.72641655571351293
21.009497869018204596614 4523.35227966590719006 21.009497869018204596614 363.83863487280046911
22.009497869018190385759 4537.21861220793289249 22.009497869018190385759 361.26760535984965372
23.009497869018190385759 4550.27366884250841395 23.009497869018190385759 358.99654068932869677
24.009497869018190385759 4562.59750649183206406 24.009497869018190385759 356.89228487176143290
25.009497869018190385759 4574.25846073427419469 25.009497869018190385759 354.96902983081616867
26.009497869018204596614 4585.31628809934045421 26.009497869018204596614 353.23755545754340801
27.009497869018190385759 4595.82243840714909311 27.009497869018190385759 351.58797565427272502
28.009497869018190385759 4605.82262767437532602 28.009497869018190385759 350.04964348315098732
29.009497869018190385759 4615.35667759793523146 29.009497869018190385759 348.61824351882933115
30.009497869018190385759 4624.46033442636144173 30.009497869018190385759 347.25564040219421713
31.009497869018190385759 4633.16515181876093266 31.009497869018190385759 345.96587197086392962
32.009497869018190385759 4641.49953992419523274 32.009497869018190385759 344.73837408692742201
33.009497869018190385759 4649.48900569828492735 33.009497869018190385759 343.57301402438162086
34.009497869018190385759 4657.15645847268842772 34.009497869018190385759 342.44673075819667929
35.009497869018190385759 4664.52284114958365535 35.009497869018190385759 341.36001955049226808
36.009497869018190385759 4671.60696097915206337 36.009497869018190385759 340.31338292630812248
37.009497869018190385759 4678.42606281714870420 37.009497869018190385759 339.30068563918388236
38.009497869018190385759 4684.99591580873948260 38.009497869018190385759 338.31816270023819015
39.009497869018190385759 4691.33086826737417141 39.009497869018190385759 337.35531775770175500
40.009497869018190385759 4697.44417555955806165 40.009497869018190385759 336.40516631364499744
41.009497869018190385759 4703.34804382270795031 41.009497869018190385759 335.50352834511056699
42.009497869018190385759 4709.05367757552266994 42.009497869018190385759 334.60130068405982229
43.009497869018190385759 4714.57147375076874596 43.009497869018190385759 333.73857614120601056
44.009497869018218807469 4719.91107717854902148 44.009497869018218807469 332.86962746427388993
46.009497869018190385759 4730.09076628014281596 46.009497869018190385759 331.18324140771295561
48.009497869018190385759 4739.65703810153263476 48.009497869018190385759 329.56055009565017144
50.009497869018190385759 4748.66583868409816205 50.009497869018190385759 327.95412315558252203
52.009497869018190385759 4757.16609576637711143 52.009497869018190385759 326.39319630640795822
54.009497869018190385759 4765.20099751198085869 54.009497869018190385759 324.88531641278780171
56.009497869018190385759 4772.80861299442676682 56.009497869018190385759 323.40768908638909807
58.009497869018218807469 4780.02298156756478420 58.009497869018218807469 321.88852291037892428
60.009497869018190385759 4786.87427870672308927 60.009497869018190385759 320.46830854310042014
62.009497869018190385759 4793.38977991243700671 62.009497869018190385759 319.07348074998247967
64.009497869018190385759 4799.59384700708051241 64.009497869018190385759 317.70260499541785748
66.009497869018190385759 4805.50856598590053181 66.009497869018190385759 316.33234495425466548
68.009497869018190385759 4811.15399317752144270 68.009497869018190385759 314.97192721548498184
70.009497869018190385759 4816.54810071292104112 70.009497869018190385759 313.67734196702826921
72.009497869018218807469 4821.70759844970416452 72.009497869018218807469 312.38484935816558163
74.009497869018190385759 4826.64752029836472502 74.009497869018190385759 311.13053556836382540
76.009497869018190385759 4831.38162155175177759 76.009497869018190385759 309.90241611257670229
78.009497869018190385759 4835.92272489570314065 78.009497869018190385759 308.69125055750703268
80.009497869018190385759 4840.28239290947840345 80.009497869018190385759 307.51408773454426182
82.009497869018218807469 4844.47131805097251345 82.009497869018218807469 306.36714216525626853
84.009497869018190385759 4848.49953601516062918 84.009497869018190385759 305.25923432895035603
86.009497869018190385759 4852.37611441582612315 86.009497869018190385759 304.15558817774007139
88.009497869018190385759 4856.10945572265791270 88.009497869018190385759 303.09649616001041750
91.009497869018218807469 4861.45825144413356611 91.009497869018218807469 301.54501517199031468
94.009497869018190385759 4866.52675569613529660 94.009497869018190385759 300.05471279972329057
97.009497869018190385759 4871.33675046645930706 97.009497869018190385759 298.61429968960612769
99.504748934509109403734 4875.15476207563460775 99.504748934509109403734 297.69037165945707102
nan nan nan nan

