Time Pressure difference Time.1 Pressure.1 difference.1
(hr) (psi) (hr) (psi)
0.000200000000006639311 0.82727687625772273 0.000200000000006639311 0.65947554316974255
0.000399999999999067768 1.65408521478818749 0.000399999999999067768 1.72619592005175027
0.000600000000005707079 2.48049646895054510 0.000600000000005707079 2.52559522406234738
0.000799999999998135536 3.30654486448568541 0.000799999999998135536 3.33941953013555404
0.001007140329434719206 4.16171895835571704 0.001007140329434719206 4.19374223500458321
0.001267914553963578328 5.23781439779167979 0.001267914553963578328 5.27685580875030968
0.001596209851982166583 6.59176896427894032 0.001596209851982166583 6.63897186622026325
0.002009509145210586212 8.29512340488400213 0.002009509145210586212 8.35156812371346113
0.002529822128138903281 10.43772820612674046 0.002529822128138903281 10.50422355338659131
0.003184857364445292660 13.13237043051469932 0.003184857364445292660 13.20908821650097487
0.004009497869020606231 16.52053757626591590 0.004009497869020606231 16.60639432394215476
0.005047658755842121536 20.77958022707828434 0.005047658755842121536 20.87121617301473009
0.006354625877804664924 26.13158563208837393 0.006354625877804664924 26.22170761390135141
0.008000000000009777068 32.85432859073485190 0.008000000000009777068 32.92905517391560011
0.010071403294347192059 41.29472036648559907 0.010071403294347192059 41.32937146062701572
0.012679145539692626699 51.88522377244950690 0.012679145539692626699 51.83769868523793178
0.015962098519750611558 65.16373078944940289 0.015962098519750611558 64.96416774494730362
0.020095091452091651263 81.79738783841419547 0.020095091452091651263 81.33212157397571218
0.025298221281346400247 102.61077097706791506 0.025298221281346400247 101.69760002847256430
0.031848573644282396344 128.61860957147533213 0.031848573644282396344 126.96890959953825018
0.040094978690191851456 161.06285943775691294 0.040094978690191851456 158.22394664568457756
0.050476587558421215363 201.45323103810127918 0.050476587558421215363 196.72135847623701466
0.063546258777947173257 251.60914308471600975 0.063546258777947173257 243.89934125010847765
0.079999999999998294697 313.69931401087654876 0.079999999999998294697 301.35272131047480570
0.100714032943542974863 390.27260577711672340 0.100714032943542974863 370.77484607074370615
0.126791455396897845276 484.27006988412148303 0.126791455396897845276 453.84579955575503618
0.159620985197506115583 599.00323944269950971 0.159620985197506115583 552.04302863359839648
0.200950914520774404082 738.07756857025412955 0.200950914520774404082 666.34592026822804200
0.252982212813464002465 905.23299088460476014 0.252982212813464002465 796.80524274489812342
0.318485736442795541734 1104.06729589111773748 0.318485736442795541734 941.95816651707946221
0.400949786901819038576 1337.60591017994738650 0.400949786901819038576 1098.10233376023711571
0.504765875584169521062 1607.69098024381787582 0.504765875584169521062 1258.51777311233854562
0.635462587779443310865 1914.19590317327015327 0.635462587779443310865 1412.86246746681126751
0.799999999999997157829 2254.14444756977536599 0.799999999999997157829 1547.15634004539674606
1.007140329435330272645 2620.93367924696167393 1.007140329435330272645 1644.91906492832890763
1.267914553968893187630 3004.00008642497004985 1.267914553968893187630 1689.93374615517313941
1.596209851975103788391 3389.34013009634736591 1.596209851975103788391 1670.53242038977577977
2.009509145207687197399 3761.16390831711896681 2.009509145207687197399 1584.24311548518721793
2.529822128134711078928 4104.54136303060386126 2.529822128134711078928 1440.65151364681537416
3.184857364427983839050 4408.31958654945901799 3.184857364427983839050 1260.38612699465375044
4.009497869018190385759 4667.21705257906705810 4.009497869018190385759 1069.69048486740894077
5.009497869018190385759 4875.77269526268355548 5.009497869018190385759 897.51219599171440677
6.009497869018190385759 5019.28228584459429840 6.009497869018190385759 776.73826912752235785
7.009497869018204596614 5124.88092709785905754 7.009497869018204596614 692.71701968974878127
8.009497869018190385759 5206.78522251108734054 8.009497869018190385759 633.58170525905916293
9.009497869018204596614 5272.96539066920649930 9.009497869018204596614 592.13839759387542472
10.009497869018190385759 5328.15989867714961292 10.009497869018190385759 562.57183509285550826
11.009497869018190385759 5375.33938413554369617 11.009497869018190385759 538.58914107292287099
12.009497869018190385759 5416.45021667121545761 12.009497869018190385759 520.30239005491614535
13.009497869018190385759 5452.82264764836327231 13.009497869018190385759 506.06257780019853953
14.009497869018204596614 5485.39801929160967120 14.009497869018204596614 494.75293133538571055
15.009497869018190385759 5514.86360379802135867 15.009497869018190385759 485.60032564023094892
16.009497869018190385759 5541.73513807500148687 16.009497869018190385759 478.06350795736335613
17.009497869018190385759 5566.40920665875637496 17.009497869018190385759 471.90018772004111725
18.009497869018190385759 5589.19723461554440291 18.009497869018190385759 466.50404953872100577
19.009497869018204596614 5610.34745836655565654 19.009497869018204596614 462.04091721280934735
20.009497869018190385759 5630.06197368284210825 20.009497869018190385759 457.94730911605427082
21.009497869018204596614 5648.50774621596883662 21.009497869018204596614 454.34120987884881515
22.009497869018190385759 5665.82324187774520396 22.009497869018190385759 451.13065292423436858
23.009497869018190385759 5682.12566184604656883 23.009497869018190385759 448.29467518240295476
24.009497869018190385759 5697.51497669959917403 24.009497869018190385759 445.66699894790309600
25.009497869018190385759 5712.07652006264925149 25.009497869018190385759 443.26534629627042250
26.009497869018204596614 5725.88491252606036142 26.009497869018204596614 441.10317854874142540
27.009497869018190385759 5739.00440172952949069 27.009497869018190385759 439.04327613108927153
28.009497869018190385759 5751.49207526171903737 28.009497869018190385759 437.12229349529155797
29.009497869018190385759 5763.39766021651757910 29.009497869018190385759 435.33484178105067031
30.009497869018190385759 5774.76579449723976722 30.009497869018190385759 433.63329969821739951
31.009497869018190385759 5785.63588053749754181 31.009497869018190385759 432.02270947115420086
32.009497869018190385759 5796.04339533247548388 32.009497869018190385759 430.48987919900230281
33.009497869018190385759 5806.02019053278309002 33.009497869018190385759 429.03464314099920784
34.009497869018190385759 5815.59487402242666576 34.009497869018190385759 427.62820398699437874
35.009497869018190385759 5824.79359811895301391 35.009497869018190385759 426.27118019244886682
36.009497869018190385759 5833.63984825788702437 36.009497869018190385759 424.96419928234956842
37.009497869018190385759 5842.15515884452997852 37.009497869018190385759 423.69959990621703128
38.009497869018190385759 5850.35922149985708529 38.009497869018190385759 422.47268055783507634
39.009497869018190385759 5858.26995359016291331 39.009497869018190385759 421.27033398386373619
40.009497869018190385759 5865.90390767110693560 40.009497869018190385759 420.08383833638583837
41.009497869018190385759 5873.27632608011390403 41.009497869018190385759 418.95792358673350009
42.009497869018190385759 5880.40120038953500625 42.009497869018190385759 417.83127246225558338
43.009497869018190385759 5887.29151370384988695 43.009497869018190385759 416.75395060849092488
44.009497869018218807469 5893.95930994406808168 44.009497869018218807469 415.66885640639230814
46.009497869018190385759 5906.67113276691270585 46.009497869018190385759 413.56299241113913467
48.009497869018190385759 5918.61695461422550579 48.009497869018190385759 411.53666682798530019
50.009497869018190385759 5929.86663775376200647 50.009497869018190385759 409.53065127719730754
52.009497869018190385759 5940.48128039168113901 52.009497869018190385759 407.58145367910736923
54.009497869018190385759 5950.51481347601566085 54.009497869018190385759 405.69849813355665447
56.009497869018190385759 5960.01477552319192910 56.009497869018190385759 403.85332029129494913
58.009497869018218807469 5969.02367296251122752 58.009497869018218807469 401.95627107150335178
60.009497869018190385759 5977.57918722924932808 60.009497869018190385759 400.18278730130879239
62.009497869018190385759 5985.71537843337046070 62.009497869018190385759 398.44100485613381579
64.009497869018190385759 5993.46266824753547553 64.009497869018190385759 396.72913236864991404
66.009497869018190385759 6000.84863641957963409 66.009497869018190385759 395.01802874940847232
68.009497869018190385759 6007.89832816389025538 68.009497869018190385759 393.31921564345731213
70.009497869018190385759 6014.63418606613504380 70.009497869018190385759 391.70261044626391822
72.009497869018218807469 6021.07707645603841229 72.009497869018218807469 390.08861841961885375
74.009497869018190385759 6027.24577283489179536 74.009497869018190385759 388.52230195345941866
76.009497869018190385759 6033.15745203824371856 76.009497869018190385759 386.98869549736338058
78.009497869018190385759 6038.82812631448450702 78.009497869018190385759 385.47626011829396475
80.009497869018190385759 6044.27223436183703598 80.009497869018190385759 384.00628543735803078
82.009497869018218807469 6049.50312831993323925 82.009497869018218807469 382.57404436214164889
84.009497869018190385759 6054.53334019983685721 84.009497869018190385759 381.19055141077473081
86.009497869018190385759 6059.37419312730071397 86.009497869018190385759 379.81238021190148402
88.009497869018190385759 6064.03617963357010012 88.009497869018190385759 378.48984570734967292
91.009497869018218807469 6070.71545469280044927 91.009497869018218807469 376.55244356904319147
94.009497869018190385759 6077.04471754014866747 94.009497869018190385759 374.69143784287052767
97.009497869018190385759 6083.05116829605685780 97.009497869018190385759 372.89273101943280153
99.504748934509109403734 6087.81888631052879646 99.504748934509109403734 371.73898169535226543
nan nan nan nan

