Time Pressure difference Time.1 Pressure.1 difference.1
(hr) (psi) (hr) (psi)
0.000200000000006639311 0.43694201210795214 0.000200000000006639311 0.34831454744880763
0.000399999999999067768 0.87363655710643695 0.000399999999999067768 0.91172319721043138
0.000600000000005707079 1.31012137444571053 0.000600000000005707079 1.33394113946954951
0.000799999999998135536 1.74641454110159433 0.000799999999998135536 1.76377792084624319
0.001007140329434719206 2.19809099913154071 0.001007140329434719206 2.21500470158692808
0.001267914553963578328 2.76645126643926753 0.001267914553963578328 2.78707172997375485
0.001596209851982166583 3.48156811493606000 0.001596209851982166583 3.50649922511633649
0.002009509145210586212 4.38122715046690381 0.002009509145210586212 4.41103950196133443
0.002529822128138903281 5.51288461591201173 0.002529822128138903281 5.54800539791545244
0.003184857364445292660 6.93611114287748265 0.003184857364445292660 6.97663110026459865
0.004009497869020606231 8.72563604380242097 0.004009497869020606231 8.77098291757508264
0.005047658755842121536 10.97513040162585618 0.005047658755842121536 11.02352966884580887
0.006354625877804664924 13.80189381976498630 0.006354625877804664924 13.84949345804648857
0.008000000000009777068 17.35263834017685980 0.008000000000009777068 17.39210660594133628
0.010071403294347192059 21.81059174286211189 0.010071403294347192059 21.82889337709173461
0.012679145539692626699 27.40416748544868497 0.012679145539692626699 27.37906620699186533
0.015962098519750611558 34.41746344513173028 0.015962098519750611558 34.31206042866934069
0.020095091452091651263 43.20284568930327396 0.020095091452091651263 42.95710646512801389
0.025298221281346400247 54.19582974140911347 0.025298221281346400247 53.71352114179889270
0.031848573644282396344 67.93236421028626637 0.031848573644282396344 67.06104380257302466
0.040094978690191851456 85.06841167487162636 0.040094978690191851456 83.56898590441086583
0.050476587558421215363 106.40135442153236056 0.050476587558421215363 103.90212595575899002
0.063546258777947173257 132.89215303770211563 0.063546258777947173257 128.82007460393054998
0.079999999999998294697 165.68625740011086123 0.079999999999998294697 159.16516970623672478
0.100714032943542974863 206.12989741749120753 0.100714032943542974863 195.83178489651956511
0.126791455396897845276 255.77644536133178121 0.126791455396897845276 239.70728849775792924
0.159620985197506115583 316.37495040987653283 0.159620985197506115583 291.57202216563297270
0.200950914520774404082 389.82970170964125600 0.200950914520774404082 351.94326774730359375
0.252982212813464002465 478.11601631229120812 0.252982212813464002465 420.84783947793920333
0.318485736442795541734 583.13413515375930274 0.318485736442795541734 497.51311611817584435
0.400949786901819038576 706.48199481335257133 0.400949786901819038576 579.98362698604080379
0.504765875584169521062 849.13255998793181334 0.504765875584169521062 664.71009143257322194
0.635462587779443310865 1011.01896294362870776 0.635462587779443310865 746.23017647894971560
0.799999999999997157829 1190.56925047699405695 0.799999999999997157829 817.16003875637159126
1.007140329435330272645 1384.29595734874737900 1.007140329435330272645 868.79528077200461667
1.267914553968893187630 1586.61976395685042007 1.267914553968893187630 892.57064057491527365
1.596209851975103788391 1790.14443491004271891 1.596209851975103788391 882.32346147347311671
2.009509145207687197399 1986.53023326608376919 2.009509145207687197399 836.74812437597915959
2.529822128134711078928 2167.89156498095280767 2.529822128134711078928 760.90748960219116270
3.184857364427983839050 2328.33780979724951976 3.184857364427983839050 665.69689806055657755
4.009497869018190385759 2465.07942917908485470 4.009497869018190385759 564.97736876799774564
5.009497869018190385759 2575.23205735705141706 5.009497869018190385759 474.03813168576465387
6.009497869018190385759 2651.02937632637031129 6.009497869018190385759 410.24908580678999215
7.009497869018204596614 2706.80330656577098125 7.009497869018204596614 365.87166532909270700
8.009497869018190385759 2750.06261752346154026 8.009497869018190385759 334.63822460865804942
9.009497869018204596614 2785.01693169148256857 9.009497869018204596614 312.74915365873704332
10.009497869018190385759 2814.16896056891664557 10.009497869018190385759 297.13301149270540691
11.009497869018190385759 2839.08770288849154895 11.009497869018190385759 284.46609563710717339
12.009497869018190385759 2860.80117077705062911 12.009497869018190385759 274.80760038111765198
13.009497869018190385759 2880.01196178610734933 13.009497869018190385759 267.28657278179503010
14.009497869018204596614 2897.21726371035674674 14.009497869018204596614 261.31316795883054738
15.009497869018190385759 2912.78007242853209391 15.009497869018190385759 256.47904523251634146
16.009497869018190385759 2926.97278419454278264 16.009497869018190385759 252.49833166762147130
17.009497869018190385759 2940.00486267187852718 17.009497869018190385759 249.24305689438790523
18.009497869018190385759 2952.04079293074528323 18.009497869018190385759 246.39298391129628385
19.009497869018204596614 2963.21168575698357017 19.009497869018204596614 244.03569571099086488
20.009497869018190385759 2973.62428187474006336 20.009497869018190385759 241.87357875847936839
21.009497869018204596614 2983.36676736758954576 21.009497869018204596614 239.96894887967368959
22.009497869018190385759 2992.51227563965449008 22.009497869018190385759 238.27323217829280111
23.009497869018190385759 3001.12270872150338619 23.009497869018190385759 236.77535661042406900
24.009497869018190385759 3009.25086797513995407 24.009497869018190385759 235.38749944431501149
25.009497869018190385759 3016.94182397675103857 25.009497869018190385759 234.11902093112877310
26.009497869018204596614 3024.23498901024322549 26.009497869018204596614 232.97703092363101973
27.009497869018190385759 3031.16429668813179887 27.009497869018190385759 231.88905429458944241
28.009497869018190385759 3037.75989890583787201 28.009497869018190385759 230.87445078976665513
29.009497869018190385759 3044.04805997351286351 29.009497869018190385759 229.93037418013238948
30.009497869018190385759 3050.05235624854230991 30.009497869018190385759 229.03167237581905624
31.009497869018190385759 3055.79359887543887453 31.009497869018190385759 228.18100852349692786
32.009497869018190385759 3061.29052570377234588 32.009497869018190385759 227.37141506989559048
33.009497869018190385759 3066.55995978844202909 33.009497869018190385759 226.60280447587985009
34.009497869018190385759 3071.61701092733846963 34.009497869018190385759 225.85996689453926933
35.009497869018190385759 3076.47549196423551621 35.009497869018190385759 225.14322897488497688
36.009497869018190385759 3081.14780717846133484 36.009497869018190385759 224.45292215617055831
37.009497869018190385759 3085.64533037563205653 37.009497869018190385759 223.78499995046672666
38.009497869018190385759 3089.97846205978385115 38.009497869018190385759 223.13697916787063491
39.009497869018190385759 3094.15666562860724298 39.009497869018190385759 222.50193696330831017
40.009497869018190385759 3098.18868362910552605 40.009497869018190385759 221.87526672696432684
41.009497869018190385759 3102.08256659160952040 41.009497869018190385759 221.28059344369728478
42.009497869018190385759 3105.84570443109259941 42.009497869018190385759 220.68553123006458350
43.009497869018190385759 3109.48495442104695030 43.009497869018190385759 220.11652320871002075
44.009497869018218807469 3113.00667778735987667 44.009497869018218807469 219.54341007379872508
46.009497869018190385759 3119.72066871491870188 46.009497869018190385759 218.43115796362977221
48.009497869018190385759 3126.03008166244308086 48.009497869018190385759 217.36091557816126851
50.009497869018190385759 3131.97181571501505459 50.009497869018190385759 216.30140032246333703
52.009497869018190385759 3137.57814105194484000 52.009497869018190385759 215.27189454882434916
54.009497869018190385759 3142.87754232888164552 54.009497869018190385759 214.27737577476585784
56.009497869018190385759 3147.89512791717834261 56.009497869018190385759 213.30281001300789967
58.009497869018218807469 3152.65334839569277392 58.009497869018218807469 212.30084739692077278
60.009497869018190385759 3157.17210593094114301 60.009497869018190385759 211.36414822252226031
62.009497869018190385759 3161.46939001762484622 62.009497869018190385759 210.44419270570449498
64.009497869018190385759 3165.56126844059963332 64.009497869018190385759 209.54003470175172197
66.009497869018190385759 3169.46230796808777086 66.009497869018190385759 208.63628279018053036
68.009497869018190385759 3173.18573670628029504 68.009497869018190385759 207.73902234689649049
70.009497869018190385759 3176.74340813352182522 70.009497869018190385759 206.88518157373096074
72.009497869018218807469 3180.14634319861170297 72.009497869018218807469 206.03272099627756120
74.009497869018190385759 3183.40445748321781139 74.009497869018190385759 205.20544117260180883
76.009497869018190385759 3186.52682325963542098 76.009497869018190385759 204.39543776269192676
78.009497869018190385759 3189.52189770131190016 78.009497869018190385759 203.59661625966228371
80.009497869018190385759 3192.39730688125155211 80.009497869018190385759 202.82022118170317526
82.009497869018218807469 3195.16010298588025762 82.009497869018218807469 202.06375582507482136
84.009497869018190385759 3197.81690503512527357 84.009497869018190385759 201.33303771695847217
86.009497869018190385759 3200.37369355315149733 86.009497869018190385759 200.60513039360992593
88.009497869018190385759 3202.83601036984327948 88.009497869018190385759 199.90660864824806708
91.009497869018218807469 3206.36379649267655623 91.009497869018218807469 198.88333287097353264
94.009497869018190385759 3209.70671701064202352 94.009497869018190385759 197.90040731137528951
97.009497869018190385759 3212.87913818453671411 97.009497869018190385759 196.95038610181313743
99.504748934509109403734 3215.39729910767391630 99.504748934509109403734 196.34101145881280104
nan nan nan nan

