Time Pressure difference Time.1 Pressure.1 difference.1
(hr) (psi) (hr) (psi)
0.000200000000006639311 0.50269138154895832 0.000200000000006639311 0.40072759363634247
0.000399999999999067768 1.00509805808054864 0.000399999999999067768 1.04891583069542960
0.000600000000005707079 1.50726344793373168 0.000600000000005707079 1.53466752045639598
0.000799999999998135536 2.00920834823878636 0.000799999999998135536 2.02918450322120147
0.001007140329434719206 2.52885135900085833 0.001007140329434719206 2.54831017096858004
0.001267914553963578328 3.18273631415108094 0.001267914553963578328 3.20645966648409120
0.001596209851982166583 4.00546122175501029 0.001596209851982166583 4.03414387041955713
0.002009509145210586212 5.04049752168001852 0.002009509145210586212 5.07479592225646936
0.002529822128138903281 6.34244249144924677 0.002529822128138903281 6.38284811493511040
0.003184857364445292660 7.97983072437714203 0.003184857364445292660 8.02644797059012838
0.004009497869020606231 10.03863651515554700 0.004009497869020606231 10.09080701374352351
0.005047658755842121536 12.62662621444193611 0.005047658755842121536 12.68230841901498707
0.006354625877804664924 15.87875022312009854 0.006354625877804664924 15.93351247363824363
0.008000000000009777068 19.96379725231775737 0.008000000000009777068 20.00920455235917927
0.010071403294347192059 25.09256650035945668 0.010071403294347192059 25.11362209478744134
0.012679145539692626699 31.52784221183048530 0.012679145539692626699 31.49896378861540214
0.015962098519750611558 39.59647223020868978 0.015962098519750611558 39.47520856936435507
0.020095091452091651263 49.70384532636033015 0.020095091452091651263 49.42112819988061290
0.025298221281346400247 62.35101174059258256 0.025298221281346400247 61.79612718027910034
0.031848573644282396344 78.15456758669125747 0.031848573644282396344 77.15213420334114858
0.040094978690191851456 97.86918219356658710 0.040094978690191851456 96.14412854526506180
0.050476587558421215363 122.41222489639150695 0.050476587558421215363 119.53692205195891063
0.063546258777947173257 152.88925797099440729 0.063546258777947173257 148.20442868718865270
0.079999999999998294697 190.61809422793703561 0.079999999999998294697 183.11573810012757235
0.100714032943542974863 237.14753912412322734 0.100714032943542974863 225.29980586190058034
0.126791455396897845276 294.26471047284644555 0.126791455396897845276 275.77752810027766373
0.159620985197506115583 363.98184770964837753 0.159620985197506115583 335.44666931055678560
0.200950914520774404082 448.48979015737774034 0.200950914520774404082 404.90234994165967919
0.252982212813464002465 550.06109305261702502 0.252982212813464002465 484.17541913271480780
0.318485736442795541734 670.88193834832509310 0.318485736442795541734 572.37699454357743889
0.400949786901819038576 812.79071403288560305 0.400949786901819038576 667.25735371346411284
0.504765875584169521062 976.90679282421115204 0.504765875584169521062 764.73313376242708728
0.635462587779443310865 1163.15324498657469121 0.635462587779443310865 858.52005065387731975
0.799999999999997157829 1369.72157578686551460 0.799999999999997157829 940.12316839780646660
1.007140329435330272645 1592.59953950217777674 1.007140329435330272645 999.52828492626815660
1.267914553968893187630 1825.36826177130978976 1.267914553968893187630 1026.88127029952170233
1.596209851975103788391 2059.51854987745855396 1.596209851975103788391 1015.09213472376711707
2.009509145207687197399 2285.45573503374225766 2.009509145207687197399 962.65879452017418316
2.529822128134711078928 2494.10762904475359392 2.529822128134711078928 875.40594994233038051
3.184857364427983839050 2678.69721355721640066 3.184857364427983839050 765.86843129252599738
4.009497869018190385759 2836.01519090317606242 4.009497869018190385759 649.99301092546784275
5.009497869018190385759 2962.74316694030267172 5.009497869018190385759 545.36958388228924832
6.009497869018190385759 3049.94617771643333981 6.009497869018190385759 471.98180538533551953
7.009497869018204596614 3114.11275650614425103 7.009497869018204596614 420.92663973099428176
8.009497869018190385759 3163.88156377937320940 8.009497869018190385759 384.99330983548469476
9.009497869018204596614 3204.09566998410582528 9.009497869018204596614 359.81045487595656596
10.009497869018190385759 3237.63438511166805256 10.009497869018190385759 341.84445512684584401
11.009497869018190385759 3266.30280484695003906 11.009497869018190385759 327.27147002821470778
12.009497869018190385759 3291.28363266540645782 12.009497869018190385759 316.15960120037158276
13.009497869018190385759 3313.38519032154090382 13.009497869018190385759 307.50683801943660001
14.009497869018204596614 3333.17948053534428254 14.009497869018204596614 300.63457799454022279
15.009497869018190385759 3351.08412142253973798 15.009497869018190385759 295.07303489607596703
16.009497869018190385759 3367.41249838762678337 16.009497869018190385759 290.49331871855883946
17.009497869018190385759 3382.40559438821856020 17.009497869018190385759 286.74820259849582271
18.009497869018190385759 3396.25264558127628334 18.009497869018190385759 283.46926149032947251
19.009497869018204596614 3409.10449180422483551 19.009497869018204596614 280.75725754178762372
20.009497869018190385759 3421.08393571874876216 20.009497869018190385759 278.26979346689819295
21.009497869018204596614 3432.29243331433144704 21.009497869018204596614 276.07856213966266523
22.009497869018190385759 3442.81412283114559614 22.009497869018190385759 274.12768044893113029
23.009497869018190385759 3452.72022108150122222 23.009497869018190385759 272.40441027180213496
24.009497869018190385759 3462.07147477520902612 24.009497869018190385759 270.80771364641196897
25.009497869018190385759 3470.91973653706236291 25.009497869018190385759 269.34835931886050275
26.009497869018204596614 3479.31034926130860185 26.009497869018204596614 268.03452700547262566
27.009497869018190385759 3487.28235276120312847 27.009497869018190385759 266.78283579796573122
28.009497869018190385759 3494.87043607452551441 28.009497869018190385759 265.61555862289344532
29.009497869018190385759 3502.10481566476528315 29.009497869018190385759 264.52942096152372642
30.009497869018190385759 3509.01261556975123312 30.009497869018190385759 263.49548593332326618
31.009497869018190385759 3515.61777851574288434 31.009497869018190385759 262.51681742512789697
32.009497869018190385759 3521.94186195253041660 32.009497869018190385759 261.58539943279419049
33.009497869018190385759 3528.00422040422608916 33.009497869018190385759 260.70113124463125587
34.009497869018190385759 3533.82223733354703654 34.009497869018190385759 259.84651429390800104
35.009497869018190385759 3539.41180408837772120 35.009497869018190385759 259.02192438253433693
36.009497869018190385759 3544.78719149674407163 36.009497869018190385759 258.22774282348001407
37.009497869018190385759 3549.96148485120329497 37.009497869018190385759 257.45931422872740768
38.009497869018190385759 3554.94664968401775695 38.009497869018190385759 256.71378174741687417
39.009497869018190385759 3559.75357340891196145 39.009497869018190385759 255.98318081112040545
40.009497869018190385759 3564.39231411805667449 40.009497869018190385759 255.26221162492660710
41.009497869018190385759 3568.87213375491865008 41.009497869018190385759 254.57805417141551629
42.009497869018190385759 3573.20153424072395865 42.009497869018190385759 253.89344926277902914
43.009497869018190385759 3577.38840470535751592 43.009497869018190385759 253.23881908202062618
44.009497869018218807469 3581.44006358774322507 44.009497869018218807469 252.57946606585610994
46.009497869018190385759 3589.16435029297326764 46.009497869018190385759 251.29984649529978924
48.009497869018190385759 3596.42317966498194437 48.009497869018190385759 250.06855811277981161
50.009497869018190385759 3603.25900322260804387 50.009497869018190385759 248.84961103765306234
52.009497869018190385759 3609.70894703880867382 52.009497869018190385759 247.66518915712362059
54.009497869018190385759 3615.80578203170398410 54.009497869018190385759 246.52101898658773393
56.009497869018190385759 3621.57839478471623806 56.009497869018190385759 245.39980428163192983
58.009497869018218807469 3627.05261415428276450 58.009497869018218807469 244.24707014807651717
60.009497869018190385759 3632.25133710912132301 60.009497869018190385759 243.16942005029224561
62.009497869018190385759 3637.19526013456288638 62.009497869018190385759 242.11103313189622099
64.009497869018190385759 3641.90286883451835820 64.009497869018190385759 241.07082087592007724
66.009497869018190385759 3646.39092192899988731 66.009497869018190385759 240.03107581956007266
68.009497869018190385759 3650.67463803922510124 68.009497869018190385759 238.99879904290565946
70.009497869018190385759 3654.76765430980412930 70.009497869018190385759 238.01647556292093100
72.009497869018218807469 3658.68265007992704341 72.009497869018218807469 237.03573996524121981
74.009497869018190385759 3662.43103299021640851 74.009497869018190385759 236.08397422524092235
76.009497869018190385759 3666.02324047394222362 76.009497869018190385759 235.15208458793509294
78.009497869018190385759 3669.46900230779510821 78.009497869018190385759 234.23305946825908563
80.009497869018190385759 3672.77709210719285693 80.009497869018190385759 233.33983541666421502
82.009497869018218807469 3675.95562324470802196 82.009497869018218807469 232.46954003494320773
84.009497869018190385759 3679.01221074517252418 84.009497869018190385759 231.62886624960555082
86.009497869018190385759 3681.95373505924499113 86.009497869018190385759 230.79142620521983531
88.009497869018190385759 3684.78657193025810557 88.009497869018190385759 229.98779356865108525
91.009497869018218807469 3688.84520586966982592 91.009497869018218807469 228.81053915060570603
94.009497869018190385759 3692.69115633224373596 94.009497869018190385759 227.67970669727748145
97.009497869018190385759 3696.34095135897177897 97.009497869018190385759 226.58672991522880125
99.504748934509109403734 3699.23803554482856271 99.504748934509109403734 225.88565889737702719
nan nan nan nan

