Time Pressure difference Time.1 Pressure.1 difference.1
(hr) (psi) (hr) (psi)
0.000200000000006639311 0.34455998669084226 0.000200000000006639311 0.27467090027391688
0.000399999999999067768 0.68892482788964737 0.000399999999999067768 0.71895886408594023
0.000600000000005707079 1.03312428384861743 0.000600000000005707079 1.05190786998170194
0.000799999999998135536 1.37717260955440013 0.000799999999998135536 1.39086487472446607
0.001007140329434719206 1.73335175931515773 0.001007140329434719206 1.74668942182283482
0.001267914553963578328 2.18154442724925124 0.001267914553963578328 2.19780513563644719
0.001596209851982166583 2.74546514206386449 0.001596209851982166583 2.76512510323459670
0.002009509145210586212 3.45491055293961535 0.002009509145210586212 3.47841972154665280
0.002529822128138903281 4.34730329711918628 0.002529822128138903281 4.37499854235618546
0.003184857364445292660 5.46961907266910075 0.003184857364445292660 5.50157195335151261
0.004009497869020606231 6.88078728025562381 0.004009497869020606231 6.91654652928777924
0.005047658755842121536 8.65467425956781788 0.005047658755842121536 8.69284053886126706
0.006354625877804664924 10.88377912644324574 0.006354625877804664924 10.92131484120237239
0.008000000000009777068 13.68379480539660875 0.008000000000009777068 13.71491835211374166
0.010071403294347192059 17.19920948865697952 0.010071403294347192059 17.21364163450662588
0.012679145539692626699 21.61014350281096341 0.012679145539692626699 21.59034935179929704
0.015962098519750611558 27.14062831673244958 0.015962098519750611558 27.05751050946496861
0.020095091452091651263 34.06852974356485930 0.020095091452091651263 33.87474681250095188
0.025298221281346400247 42.73728288179690082 0.025298221281346400247 42.35694810038998526
0.031848573644282396344 53.56952149154003706 0.031848573644282396344 52.88242311288615838
0.040094978690191851456 67.08251892075590206 0.040094978690191851456 65.90011459890683909
0.050476587558421215363 83.90506805812265156 0.050476587558421215363 81.93424789654136475
0.063546258777947173257 104.79495496687366085 0.063546258777947173257 101.58383025909951414
0.079999999999998294697 130.65544869265883676 0.079999999999998294697 125.51310525406096019
0.100714032943542974863 162.54814767779305384 0.100714032943542974863 154.42735037554112409
0.126791455396897845276 201.69799691350735316 0.126791455396897845276 189.02631892966053329
0.159620985197506115583 249.48424660893118698 0.159620985197506115583 229.92536605061340538
0.200950914520774404082 307.40856477674566349 0.200950914520774404082 277.53240542358798848
0.252982212813464002465 377.02863000626393841 0.252982212813464002465 331.86858198831777145
0.318485736442795541734 459.84291800696450991 0.318485736442795541734 392.32462871033288820
0.400949786901819038576 557.11151590995802962 0.400949786901819038576 457.35851728042069908
0.504765875584169521062 669.60167587619775986 0.504765875584169521062 524.17138638682911278
0.635462587779443310865 797.26066792126141536 0.635462587779443310865 588.45579630911458935
0.799999999999997157829 938.84889466185825313 0.799999999999997157829 644.38905913359587885
1.007140329435330272645 1091.61624065215505652 1.007140329435330272645 685.10713569449512761
1.267914553968893187630 1251.16301386311647548 1.267914553968893187630 703.85570513907612167
1.596209851975103788391 1411.65675438620519344 1.596209851975103788391 695.77507247622452269
2.009509145207687197399 1566.52098394696918149 2.009509145207687197399 659.83566379362923726
2.529822128134711078928 1709.53734838498007775 2.529822128134711078928 600.02990608629932012
3.184857364427983839050 1836.06067286868824340 3.184857364427983839050 524.94955389918175115
4.009497869018190385759 1943.89120700979287903 4.009497869018190385759 445.52501079990679500
5.009497869018190385759 2030.75442237298875625 5.009497869018190385759 373.81292670077442608
6.009497869018190385759 2090.52602247450931827 6.009497869018190385759 323.51070766478295582
7.009497869018204596614 2134.50775032043611645 7.009497869018204596614 288.51594180237020737
8.009497869018190385759 2168.62080696135808466 8.009497869018190385759 263.88614283425607709
9.009497869018204596614 2196.18478041956905145 9.009497869018204596614 246.62504688517549312
10.009497869018190385759 2219.17323747720274696 10.009497869018190385759 234.31060334853339100
11.009497869018190385759 2238.82344570635314085 11.009497869018190385759 224.32183541669019178
12.009497869018190385759 2255.94606609847414802 12.009497869018190385759 216.70542201482422229
13.009497869018190385759 2271.09514700847330460 13.009497869018190385759 210.77455453650122763
14.009497869018204596614 2284.66275652588183220 14.009497869018204596614 206.06409816182062400
15.009497869018190385759 2296.93514282935666415 15.009497869018190385759 202.25204709764145150
16.009497869018190385759 2308.12710982198223064 16.009497869018190385759 199.11297011503867793
17.009497869018190385759 2318.40383456410972940 17.009497869018190385759 196.54595343671735463
18.009497869018190385759 2327.89502528253069613 18.009497869018190385759 194.29846731290794537
19.009497869018204596614 2336.70407219693606748 19.009497869018204596614 192.43957718923851985
20.009497869018190385759 2344.91514799265269176 20.009497869018190385759 190.73459353525802840
21.009497869018204596614 2352.59779369558509643 21.009497869018204596614 189.23265683082840383
22.009497869018190385759 2359.80968021869875884 22.009497869018190385759 187.89546308916803241
23.009497869018190385759 2366.59962173467101820 23.009497869018190385759 186.71428121279154766
24.009497869018190385759 2373.00925588896780027 24.009497869018190385759 185.61985670465983844
25.009497869018190385759 2379.07412405023842439 25.009497869018190385759 184.61957079140441351
26.009497869018204596614 2384.82530561950579795 26.009497869018204596614 183.71903009977759780
27.009497869018190385759 2390.28955967407000571 27.009497869018190385759 182.86108281516195007
28.009497869018190385759 2395.49066313717457888 28.009497869018190385759 182.06099547993028409
29.009497869018190385759 2400.44932729339871003 29.009497869018190385759 181.31652363919013737
30.009497869018190385759 2405.18414378456463965 30.009497869018190385759 180.60783307350303062
31.009497869018190385759 2409.71152368463162929 31.009497869018190385759 179.93702386424331507
32.009497869018190385759 2414.04624312640316930 32.009497869018190385759 179.29860159797479469
33.009497869018190385759 2418.20156829031384405 33.009497869018190385759 178.69249724383669786
34.009497869018190385759 2422.18941433127247365 34.009497869018190385759 178.10671675112237722
35.009497869018190385759 2426.02067366322580710 35.009497869018190385759 177.54151770590931392
36.009497869018190385759 2429.70512794644400856 36.009497869018190385759 176.99716147172304659
37.009497869018190385759 2433.25174623907014393 37.009497869018190385759 176.47045710379663319
38.009497869018190385759 2436.66873008142920298 38.009497869018190385759 175.95944642952085246
39.009497869018190385759 2439.96354203855889864 39.009497869018190385759 175.45867029106599944
40.009497869018190385759 2443.14307623323747976 40.009497869018190385759 174.96449604754903362
41.009497869018190385759 2446.21368108366914385 41.009497869018190385759 174.49555368702985447
42.009497869018190385759 2449.18118406566190970 42.009497869018190385759 174.02630462713665338
43.009497869018190385759 2452.05099262916883163 43.009497869018190385759 173.57760115886847530
44.009497869018218807469 2454.82812305517518325 44.009497869018218807469 173.12566051533843847
46.009497869018190385759 2460.12258447233580227 46.009497869018190385759 172.24857027989094149
48.009497869018190385759 2465.09800725381228403 48.009497869018190385759 171.40460771306428001
50.009497869018190385759 2469.78348896384022737 50.009497869018190385759 170.56910425428540634
52.009497869018190385759 2474.20447694381891779 52.009497869018190385759 169.75726541564432637
54.009497869018190385759 2478.38343337934657029 54.009497869018190385759 168.97301632524391835
56.009497869018190385759 2482.34015801468922291 56.009497869018190385759 168.20450161025766533
58.009497869018218807469 2486.09235473488934076 58.009497869018218807469 167.41438251871468879
60.009497869018190385759 2489.65571781982771427 60.009497869018190385759 166.67572831261753663
62.009497869018190385759 2493.04443327104172567 62.009497869018190385759 165.95027767649841621
64.009497869018190385759 2496.27117168458698870 64.009497869018190385759 165.23728450766708420
66.009497869018190385759 2499.34741999769175891 66.009497869018190385759 164.52461157168522732
68.009497869018190385759 2502.28360951695231051 68.009497869018190385759 163.81705762212408217
70.009497869018190385759 2505.08908755672018742 70.009497869018190385759 163.14374318385642937
72.009497869018218807469 2507.77254492233396377 72.009497869018218807469 162.47151712849316141
74.009497869018190385759 2510.34180075819494959 74.009497869018190385759 161.81914789610883076
76.009497869018190385759 2512.80400919902695023 76.009497869018190385759 161.18040235000847815
78.009497869018190385759 2515.16583933017727759 78.009497869018190385759 160.55047453619081921
80.009497869018190385759 2517.43330485493015658 80.009497869018190385759 159.93823156042878963
82.009497869018218807469 2519.61196692600879032 82.009497869018218807469 159.34170459348757731
84.009497869018190385759 2521.70704511341318721 84.009497869018190385759 158.76548117108723090
86.009497869018190385759 2523.72325548762819380 86.009497869018190385759 158.19147425324669598
88.009497869018190385759 2525.66496817736242519 88.009497869018190385759 157.64063996261845091
91.009497869018218807469 2528.44687951993910247 91.009497869018218807469 156.83371392111052955
94.009497869018190385759 2531.08301112839217240 94.009497869018190385759 156.05860690839878657
97.009497869018190385759 2533.58469182552016719 97.009497869018190385759 155.30944732600121938
99.504748934509109403734 2535.57044158205144413 99.504748934509109403734 154.82891189323524372
nan nan nan nan

