Time Pressure difference Time.1 Pressure.1 difference.1
(hr) (psi) (hr) (psi)
0.000200000000006639311 0.32541776520801768 0.000200000000006639311 0.25941140581425481
0.000399999999999067768 0.65065122634022265 0.000399999999999067768 0.67901670497005462
0.000600000000005707079 0.97572849030147202 0.000600000000005707079 0.99346854387160732
0.000799999999998135536 1.30066302013471113 0.000799999999998135536 1.31359460390644012
0.001007140329434719206 1.63705443935320449 0.001007140329434719206 1.64965112061045516
0.001267914553963578328 2.06034751462429222 0.001267914553963578328 2.07570485032331131
0.001596209851982166583 2.59293930083809432 0.001596209851982166583 2.61150704194378580
0.002009509145210586212 3.26297107777630346 0.002009509145210586212 3.28517418146072782
0.002529822128138903281 4.10578644727923159 0.002529822128138903281 4.13194306778084197
0.003184857364445292660 5.16575134640970557 0.003184857364445292660 5.19592906705420532
0.004009497869020606231 6.49852132024142293 0.004009497869020606231 6.53229394432734711
0.005047658755842121536 8.17385902292516064 0.005047658755842121536 8.20990495336897297
0.006354625877804664924 10.27912473052973219 0.006354625877804664924 10.31457512780224128
0.008000000000009777068 12.92358398287457533 0.008000000000009777068 12.95297844366297646
0.010071403294347192059 16.24369785039825587 0.010071403294347192059 16.25732821036736908
0.012679145539692626699 20.40957997487701903 0.012679145539692626699 20.39088549892155910
0.015962098519750611558 25.63281563246953354 0.015962098519750611558 25.55431548116136042
0.020095091452091651263 32.17583364670014845 0.020095091452091651263 31.99281643402867203
0.025298221281346400247 40.36298938836373651 0.025298221281346400247 40.00378431703498450
0.031848573644282396344 50.59343696423225367 0.031848573644282396344 49.94451071772581230
0.040094978690191851456 63.35571231404723846 0.040094978690191851456 62.23899712118981142
0.050476587558421215363 79.24367538822696133 0.050476587558421215363 77.38234523562239531
0.063546258777947173257 98.97301302426956227 0.063546258777947173257 95.94028413359397689
0.079999999999998294697 123.39681265417780764 0.079999999999998294697 118.54015496216867120
0.100714032943542974863 153.51769502902681097 0.100714032943542974863 145.84805313245550451
0.126791455396897845276 190.49255264053473979 0.126791455396897845276 178.52485676690162109
0.159620985197506115583 235.62401068621278455 0.159620985197506115583 217.15173460335714140
0.200950914520774404082 290.33031117803761845 0.200950914520774404082 262.11393845561082117
0.252982212813464002465 356.08259500591594815 0.252982212813464002465 313.43143854452233654
0.318485736442795541734 434.29608922879981492 0.318485736442795541734 370.52881600420329278
0.400949786901819038576 526.16087613718264038 0.400949786901819038576 431.94971076484176820
0.504765875584169521062 632.40158277196451309 0.504765875584169521062 495.05075380978308885
0.635462587779443310865 752.96840859230246679 0.635462587779443310865 555.76380762527492152
0.799999999999997157829 886.69062273619942971 0.799999999999997157829 608.58966695950721260
1.007140329435330272645 1030.97089394925751549 1.007140329435330272645 647.04562815591202707
1.267914553968893187630 1181.65395753738766871 1.267914553968893187630 664.75261040912744193
1.596209851975103788391 1333.23137914252720293 1.596209851975103788391 657.12090178310086230
2.009509145207687197399 1479.49204039435949198 2.009509145207687197399 623.17812691620542864
2.529822128134711078928 1614.56305125248127297 2.529822128134711078928 566.69491130372716725
3.184857364427983839050 1734.05730215376115666 3.184857364427983839050 495.78568979367167913
4.009497869018190385759 1835.89725106480409522 4.009497869018190385759 420.77362131102307785
5.009497869018190385759 1917.93473224115609810 5.009497869018190385759 353.04554188406473259
6.009497869018190385759 1974.38568789259170444 6.009497869018190385759 305.53789057229499804
7.009497869018204596614 2015.92398641374552426 7.009497869018204596614 272.48727836890520848
8.009497869018190385759 2048.14187324128261025 8.009497869018190385759 249.22580156568625398
9.009497869018204596614 2074.17451484070397782 9.009497869018204596614 232.92365539155463239
10.009497869018190385759 2095.88583539513638243 10.009497869018190385759 221.29334760694820261
11.009497869018190385759 2114.44436538933314296 11.009497869018190385759 211.85951122687410475
12.009497869018190385759 2130.61572909300321044 12.009497869018190385759 204.66623190288956380
13.009497869018190385759 2144.92319439689117644 13.009497869018190385759 199.06485706225114996
14.009497869018204596614 2157.73704782999948293 14.009497869018204596614 194.61609270838613384
15.009497869018190385759 2169.32763489439275872 15.009497869018190385759 191.01582225888361677
16.009497869018190385759 2179.89782594298367258 16.009497869018190385759 188.05113844198095308
17.009497869018190385759 2189.60362153277037578 17.009497869018190385759 185.62673380134415879
18.009497869018190385759 2198.56752387794585957 18.009497869018190385759 183.50410801774637548
19.009497869018204596614 2206.88717929710628596 19.009497869018204596614 181.74848956761414343
20.009497869018190385759 2214.64208421528246618 20.009497869018190385759 180.13822722774369822
21.009497869018204596614 2221.89791626805254054 21.009497869018204596614 178.71973145133790695
22.009497869018190385759 2228.70914242877097422 22.009497869018190385759 177.45682625088090845
23.009497869018190385759 2235.12186497163429522 23.009497869018190385759 176.34126558985869337
24.009497869018190385759 2241.17540833958082658 24.009497869018190385759 175.30764244328983636
25.009497869018190385759 2246.90333938078038045 25.009497869018190385759 174.36292796965972229
26.009497869018204596614 2252.33501086286696591 26.009497869018204596614 173.51241731645663435
27.009497869018190385759 2257.49569524773232843 27.009497869018190385759 172.70213376987516085
28.009497869018190385759 2262.40784851844318837 28.009497869018190385759 171.94649573104527462
29.009497869018190385759 2267.09103133265398355 29.009497869018190385759 171.24338343701288068
30.009497869018190385759 2271.56280246320011429 30.009497869018190385759 170.57406456941953365
31.009497869018190385759 2275.83866125770737199 31.009497869018190385759 169.94052253845200084
32.009497869018190385759 2279.93256295271430645 32.009497869018190385759 169.33756817586510124
33.009497869018190385759 2283.85703671862984265 33.009497869018190385759 168.76513628584575599
34.009497869018190385759 2287.62333575731281599 34.009497869018190385759 168.21189915383783386
35.009497869018190385759 2291.24174734860207536 35.009497869018190385759 167.67810005558101238
36.009497869018190385759 2294.72150972719646234 36.009497869018190385759 167.16398583440511061
37.009497869018190385759 2298.07109367023258528 37.009497869018190385759 166.66654282025234579
38.009497869018190385759 2301.29824507690591417 38.009497869018190385759 166.18392162788080668
39.009497869018190385759 2304.41001192530575281 39.009497869018190385759 165.71096638600675988
40.009497869018190385759 2307.41290533139090257 40.009497869018190385759 165.24424626712965392
41.009497869018190385759 2310.31292102346560569 41.009497869018190385759 164.80135625997263560
42.009497869018190385759 2313.11556272868028827 42.009497869018190385759 164.35817659229573451
43.009497869018190385759 2315.82593748310409865 43.009497869018190385759 163.93440109448687281
44.009497869018218807469 2318.44878288544305178 44.009497869018218807469 163.50756826448630932
46.009497869018190385759 2323.44910755720593443 46.009497869018190385759 162.67920526434141948
48.009497869018190385759 2328.14811796193362170 48.009497869018190385759 161.88212950678297375
50.009497869018190385759 2332.57329513251579556 50.009497869018190385759 161.09304290682510441
52.009497869018190385759 2336.74867266916271547 52.009497869018190385759 160.32630622588632718
54.009497869018190385759 2340.69546485827186189 54.009497869018190385759 159.58562652939701820
56.009497869018190385759 2344.43237145831790258 56.009497869018190385759 158.85980707635442855
58.009497869018218807469 2347.97611280517321575 58.009497869018218807469 158.11358348989719502
60.009497869018190385759 2351.34151127428231121 60.009497869018190385759 157.41596562858325115
62.009497869018190385759 2354.54196475598337202 62.009497869018190385759 156.73081780558183596
64.009497869018190385759 2357.58943992433205494 64.009497869018190385759 156.05743536835223040
66.009497869018190385759 2360.49478555337555008 66.009497869018190385759 155.38435537325827340
68.009497869018190385759 2363.26785343267738426 68.009497869018190385759 154.71610997645052521
70.009497869018190385759 2365.91747158134694473 70.009497869018190385759 154.08020189586437709
72.009497869018218807469 2368.45184798220452649 72.009497869018218807469 153.44532173246577145
74.009497869018190385759 2370.87836738273927040 74.009497869018190385759 152.82919523521391625
76.009497869018190385759 2373.20378646574772574 76.009497869018190385759 152.22593555278578492
78.009497869018190385759 2375.43440381183427235 78.009497869018190385759 151.63100372862467680
80.009497869018190385759 2377.57589902965582951 80.009497869018190385759 151.05277425151606963
82.009497869018218807469 2379.63352431900784723 82.009497869018218807469 150.48938767162715635
84.009497869018190385759 2381.61220927377871703 84.009497869018190385759 149.94517666158239422
86.009497869018190385759 2383.51640796053789018 86.009497869018190385759 149.40305901695521129
88.009497869018190385759 2385.35024772306405794 88.009497869018190385759 148.88282663136189399
91.009497869018218807469 2387.97760843549804122 91.009497869018218807469 148.12072981438217312
94.009497869018190385759 2390.46728828792583954 94.009497869018190385759 147.38868430237664597
97.009497869018190385759 2392.82998672410258223 97.009497869018190385759 146.68114469677891520
99.504748934509109403734 2394.70541704971492436 99.504748934509109403734 146.22730567694438264
nan nan nan nan

