Time Pressure difference Time.1 Pressure.1 difference.1
(hr) (psi) (hr) (psi)
0.000200000000006639311 0.49853002905269206 0.000200000000006639311 0.39741031223206813
0.000399999999999067768 0.99677770991763004 0.000399999999999067768 1.04023275262675874
0.000600000000005707079 1.49478610151043934 0.000600000000005707079 1.52196331912811478
0.000799999999998135536 1.99257582879972395 0.000799999999998135536 2.01238661826076148
0.001007140329434719206 2.50791715900912937 0.001007140329434719206 2.52721488809632389
0.001267914553963578328 3.15638915923261187 0.001267914553963578328 3.17991612619862751
0.001596209851982166583 3.97230343018419019 0.001596209851982166583 4.00074863970416228
0.002009509145210586212 4.99877154881842856 0.002009509145210586212 5.03278602223779004
0.002529822128138903281 6.28993882844056174 0.002529822128138903281 6.33000996828829798
0.003184857364445292660 7.91377252301640333 0.003184857364445292660 7.96000386487332268
0.004009497869020606231 9.95553521950028575 0.004009497869020606231 10.00727384309995038
0.005047658755842121536 12.52210116299788112 0.005047658755842121536 12.57732242216883733
0.006354625877804664924 15.74730361531281453 0.006354625877804664924 15.80161253594256365
0.008000000000009777068 19.79853403003035694 0.008000000000009777068 19.84356544182640292
0.010071403294347192059 24.88484657899886443 0.010071403294347192059 24.90572787214847494
0.012679145539692626699 31.26685014054050171 0.012679145539692626699 31.23821077712023708
0.015962098519750611558 39.26868686406457698 0.015962098519750611558 39.14842704147226016
0.020095091452091651263 49.29238965312887188 0.020095091452091651263 49.01201290021273138
0.025298221281346400247 61.83486098115059093 0.025298221281346400247 61.28456983607149766
0.031848573644282396344 77.50759268945043345 0.031848573644282396344 76.51345759569760219
0.040094978690191851456 97.05900684428208081 0.040094978690191851456 95.34823344141354085
0.050476587558421215363 121.39887866380549042 0.050476587558421215363 118.54737799523739739
0.063546258777947173257 151.62361841825440933 0.063546258777947173257 146.97757083381787879
0.079999999999998294697 189.04012987174553473 0.079999999999998294697 181.59987934102053941
0.100714032943542974863 235.18439724395665280 0.100714032943542974863 223.43474124383848789
0.126791455396897845276 291.82874432654807606 0.126791455396897845276 273.49460154315619320
0.159620985197506115583 360.96875294384005883 0.159620985197506115583 332.66979290897927513
0.200950914520774404082 444.77712633157165101 0.200950914520774404082 401.55050929644733060
0.252982212813464002465 545.50760718297601670 0.252982212813464002465 480.16734447102015793
0.318485736442795541734 665.32827991828924041 0.318485736442795541734 567.63877439007114845
0.400949786901819038576 806.06231408228222790 0.400949786901819038576 661.73370012312079780
0.504765875584169521062 968.81981606242129601 0.504765875584169521062 758.40256146306921892
0.635462587779443310865 1153.52449295854012234 0.635462587779443310865 851.41309659217301942
0.799999999999997157829 1358.38282102041807775 0.799999999999997157829 932.34069183822202831
1.007140329435330272645 1579.41576847980900311 1.007140329435330272645 991.25404415701109428
1.267914553968893187630 1810.25759735267320139 1.267914553968893187630 1018.38059753214156444
1.596209851975103788391 2042.46955525926796327 1.596209851975103788391 1006.68905413830543694
2.009509145207687197399 2266.53639947882720662 2.009509145207687197399 954.68976476421244115
2.529822128134711078928 2473.46104271160174903 2.529822128134711078928 868.15921194611905776
3.184857364427983839050 2656.52256774962370400 3.184857364427983839050 759.52846083480631023
4.009497869018190385759 2812.53824395861329322 4.009497869018190385759 644.61227408005845518
5.009497869018190385759 2938.21714734642591793 5.009497869018190385759 540.85493500909149134
6.009497869018190385759 3024.69827889427779155 6.009497869018190385759 468.07467123479466409
7.009497869018204596614 3088.33367739599361812 7.009497869018204596614 417.44214768024096429
8.009497869018190385759 3137.69049123153035907 8.009497869018190385759 381.80627912492604992
9.009497869018204596614 3177.57169920609112523 9.009497869018204596614 356.83189150777809573
10.009497869018190385759 3210.83277596339257798 10.009497869018190385759 339.01461692215337962
11.009497869018190385759 3239.26387434325033610 11.009497869018190385759 324.56226911738514218
12.009497869018190385759 3264.03790722943449509 12.009497869018190385759 313.54238595864666195
13.009497869018190385759 3285.95650497119686406 13.009497869018190385759 304.96125161199091735
14.009497869018204596614 3305.58693516667381118 14.009497869018204596614 298.14588115683710612
15.009497869018190385759 3323.34335882798268358 15.009497869018190385759 292.63037732243293476
16.009497869018190385759 3339.53656710958330223 16.009497869018190385759 288.08857270267668582
17.009497869018190385759 3354.40554807705711937 17.009497869018190385759 284.37445919950170037
18.009497869018190385759 3368.13797136288849288 18.009497869018190385759 281.12266164355520459
19.009497869018204596614 3380.88342813034932988 19.009497869018204596614 278.43310805882578052
20.009497869018190385759 3392.76370446279906901 20.009497869018190385759 275.96623557396026172
21.009497869018204596614 3403.87941648225933022 21.009497869018204596614 273.79314357890388010
22.009497869018190385759 3414.31400592029149266 22.009497869018190385759 271.85841157104266586
23.009497869018190385759 3424.13810004605829818 23.009497869018190385759 270.14940687551239762
24.009497869018190385759 3433.41194269925517801 24.009497869018190385759 268.56592793741845071
25.009497869018190385759 3442.18695726109353927 25.009497869018190385759 267.11865435761171739
26.009497869018204596614 3450.50811127073484386 26.009497869018204596614 265.81569813953325365
27.009497869018190385759 3458.41412136417284273 27.009497869018190385759 264.57436861420774221
28.009497869018190385759 3465.93938941827991584 28.009497869018190385759 263.41675432965763548
29.009497869018190385759 3473.11388176025593566 29.009497869018190385759 262.33960787409392879
30.009497869018190385759 3479.96449789119333218 30.009497869018190385759 261.31423191069643508
31.009497869018190385759 3486.51498233597658327 31.009497869018190385759 260.34366496299935534
32.009497869018190385759 3492.78671408868467552 32.009497869018190385759 259.41995738450941644
33.009497869018190385759 3498.79888745386051596 33.009497869018190385759 258.54300929724195157
34.009497869018190385759 3504.56874199138201220 34.009497869018190385759 257.69546699015052127
35.009497869018190385759 3510.11203749824198894 35.009497869018190385759 256.87770315420215184
36.009497869018190385759 3515.44292666647288570 36.009497869018190385759 256.09009594580220437
37.009497869018190385759 3520.57438646667333160 37.009497869018190385759 255.32802851491345564
38.009497869018190385759 3525.51828337868664676 38.009497869018190385759 254.58866766010382321
39.009497869018190385759 3530.28541468863977570 39.009497869018190385759 253.86411474480317452
40.009497869018190385759 3534.88575522635119341 40.009497869018190385759 253.14911384657457916
41.009497869018190385759 3539.32849026357007460 41.009497869018190385759 252.47061994814225727
42.009497869018190385759 3543.62205134138002904 42.009497869018190385759 251.79168229868318463
43.009497869018190385759 3547.77426228229978733 43.009497869018190385759 251.14247124193767036
44.009497869018218807469 3551.79238094214952071 44.009497869018218807469 250.48857644610558282
46.009497869018190385759 3559.45272487664033179 46.009497869018190385759 249.21954975278904953
48.009497869018190385759 3566.65146460153027874 48.009497869018190385759 247.99845415489252787
50.009497869018190385759 3573.43070021579796958 50.009497869018190385759 246.78959770124865258
52.009497869018190385759 3579.82725045736151515 52.009497869018190385759 245.61498063761101207
54.009497869018190385759 3585.87361496190487742 54.009497869018190385759 244.48028207444710347
56.009497869018190385759 3591.59844118550472558 56.009497869018190385759 243.36834894817471309
58.009497869018218807469 3597.02734416956172936 58.009497869018218807469 242.22515731572485720
60.009497869018190385759 3602.18303133835024710 60.009497869018190385759 241.15642816245872382
62.009497869018190385759 3607.08602784868025992 62.009497869018190385759 240.10680272517521416
64.009497869018190385759 3611.75466627794139640 64.009497869018190385759 239.07520149780813767
66.009497869018190385759 3616.20556661501814233 66.009497869018190385759 238.04406360251073238
68.009497869018190385759 3620.45382149916531489 68.009497869018190385759 237.02033216341141042
70.009497869018190385759 3624.51295518472306867 70.009497869018190385759 236.04614050031398165
72.009497869018218807469 3628.39554204946398386 72.009497869018218807469 235.07352357480050387
74.009497869018190385759 3632.11289529990017400 74.009497869018190385759 234.12963669026376579
76.009497869018190385759 3635.67536596670788640 76.009497869018190385759 233.20546137114754970
78.009497869018190385759 3639.09260328206801205 78.009497869018190385759 232.29404407530995513
80.009497869018190385759 3642.37330823213324038 80.009497869018190385759 231.40821426255277515
82.009497869018218807469 3645.52552702579487232 82.009497869018218807469 230.54512331279966020
84.009497869018190385759 3648.55681164959969465 84.009497869018190385759 229.71140874753928074
86.009497869018190385759 3651.47398559683369967 86.009497869018190385759 228.88090115385210765
88.009497869018190385759 3654.28337183149733391 88.009497869018190385759 228.08392110533446839
91.009497869018218807469 3658.30840780783501032 91.009497869018218807469 226.91641217088215399
94.009497869018190385759 3662.12252093214192428 94.009497869018190385759 225.79494091335959638
97.009497869018190385759 3665.74210242388107872 97.009497869018190385759 224.71101195235439718
99.504748934509109403734 3668.61520412475556441 99.504748934509109403734 224.01574450253116311
nan nan nan nan

