Time Pressure difference Time.1 Pressure.1 difference.1
(hr) (psi) (hr) (psi)
0.000200000000006639311 0.76568885931298281 0.000200000000006639311 0.61037977838648194
0.000399999999999067768 1.53094406197699429 0.000399999999999067768 1.59768636463542268
0.000600000000005707079 2.29583174188581651 0.000600000000005707079 2.33757304440378189
0.000799999999998135536 3.06038357678755535 0.000799999999998135536 3.09081083272103552
0.001007140329434719206 3.85189279847812838 0.001007140329434719206 3.88153204849518829
0.001267914553963578328 4.84787650499833500 0.001267914553963578328 4.88401141252543702
0.001596209851982166583 6.10103364903080969 0.001596209851982166583 6.14472245163243791
0.002009509145210586212 7.67757900653247827 0.002009509145210586212 7.72982160343700642
0.002529822128138903281 9.66067399359818957 0.002529822128138903281 9.72221898301374488
0.003184857364445292660 12.15470905037577865 0.003184857364445292660 12.22571545189224906
0.004009497869020606231 15.29063840056805290 0.004009497869020606231 15.37010339841728523
0.005047658755842121536 19.23260946570626118 0.005047658755842121536 19.31742341969170340
0.006354625877804664924 24.18617583654054570 0.006354625877804664924 24.26958853600527277
0.008000000000009777068 30.40843290088134765 0.008000000000009777068 30.47759633803053347
0.010071403294347192059 38.22046553034884653 0.010071403294347192059 38.25253696557027894
0.012679145539692626699 48.02254111735769015 0.012679145539692626699 47.97855411510955292
0.015962098519750611558 60.31250737051654909 0.015962098519750611558 60.12780113214436994
0.020095091452091651263 75.70784387458857623 0.020095091452091651263 75.27721513889099469
0.025298221281346400247 94.97173973732644470 0.025298221281346400247 94.12655133419995934
0.031848573644282396344 119.04338109231119347 0.031848573644282396344 117.51649580641367265
0.040094978690191851456 149.07226426834645849 0.040094978690191851456 146.44469910868190254
0.050476587558421215363 186.45570679582812090 0.050476587558421215363 182.07610643675860729
0.063546258777947173257 232.87767770416368762 0.063546258777947173257 225.74184502022112042
0.079999999999998294697 290.34544153924190368 0.079999999999998294697 278.91801167569104791
0.100714032943542974863 361.21810595065124971 0.100714032943542974863 343.17188972342466968
0.126791455396897845276 448.21777091890521660 0.126791455396897845276 420.05848651035677221
0.159620985197506115583 554.40943690873598371 0.159620985197506115583 510.94525789025203721
0.200950914520774404082 683.13014394832373455 0.200950914520774404082 616.73867871908441884
0.252982212813464002465 837.84140001391983787 0.252982212813464002465 737.48573775181716883
0.318485736442795541734 1021.87315112658779981 0.318485736442795541734 871.83250824518427180
0.400949786901819038576 1238.02559091101784361 0.400949786901819038576 1016.35226062315723539
0.504765875584169521062 1488.00372416932827946 0.504765875584169521062 1164.82530308184254864
0.635462587779443310865 1771.69037315835885238 0.635462587779443310865 1307.67954735358785001
0.799999999999997157829 2086.33087702635157257 0.799999999999997157829 1431.97568696354619533
1.007140329435330272645 2425.81386811590027719 1.007140329435330272645 1522.46030154332243001
1.267914553968893187630 2780.36225302914726853 1.267914553968893187630 1564.12378919794673493
1.596209851975103788391 3137.01500974712280367 1.596209851975103788391 1546.16682772494345954
2.009509145207687197399 3481.15774210437575675 2.009509145207687197399 1466.30147509695393637
2.529822128134711078928 3798.97188529995537465 2.529822128134711078928 1333.39979130288747911
3.184857364427983839050 4080.13482859708483375 3.184857364427983839050 1166.55456422040401776
4.009497869018190385759 4319.75823779953952908 4.009497869018190385759 990.05557955534857228
5.009497869018190385759 4512.78760527330905461 5.009497869018190385759 830.69539266838751246
6.009497869018190385759 4645.61338327668636339 6.009497869018190385759 718.91268369951774275
7.009497869018204596614 4743.35055626763642067 7.009497869018204596614 641.14653733860063767
8.009497869018190385759 4819.15734880301897647 8.009497869018190385759 586.41365074279121927
9.009497869018204596614 4880.41062315459748788 9.009497869018204596614 548.05565974483442915
10.009497869018190385759 4931.49608328267368051 10.009497869018190385759 520.69022966340753555
11.009497869018190385759 4975.16321268078445428 11.009497869018190385759 498.49296759264490220
12.009497869018190385759 5013.21348021883113688 12.009497869018190385759 481.56760447738713538
13.009497869018190385759 5046.87810446327421232 13.009497869018190385759 468.38789897000270912
14.009497869018204596614 5077.02834783529215201 14.009497869018204596614 457.92021813737920866
15.009497869018190385759 5104.30031739857076900 15.009497869018190385759 449.44899355031435562
16.009497869018190385759 5129.17135515996142203 16.009497869018190385759 442.47326692230814160
17.009497869018190385759 5152.00852125357778277 17.009497869018190385759 436.76878541492743580
18.009497869018190385759 5173.10005618340073852 18.009497869018190385759 431.77437180646205661
19.009497869018204596614 5192.67571599319035158 19.009497869018204596614 427.64350486497443171
20.009497869018190385759 5210.92255109478264785 20.009497869018190385759 423.85465230057337749
21.009497869018204596614 5227.99509710129950690 21.009497869018204596614 420.51701517961868149
22.009497869018190385759 5244.02151159710865613 22.009497869018190385759 417.54547353148456068
23.009497869018190385759 5259.11027052149165684 23.009497869018190385759 414.92062491731456930
24.009497869018190385759 5273.35390197548349533 24.009497869018190385759 412.48857045479968519
25.009497869018190385759 5286.83138677830720553 25.009497869018190385759 410.26571286978753506
26.009497869018204596614 5299.61179026556874305 26.009497869018204596614 408.26451133283916306
27.009497869018190385759 5311.75457705348799209 27.009497869018190385759 406.35796181147094330
28.009497869018190385759 5323.31258474927835778 28.009497869018190385759 404.57998995540060605
29.009497869018190385759 5334.33183842977541644 29.009497869018190385759 402.92560808708918785
30.009497869018190385759 5344.85365285458829021 30.009497869018190385759 401.35074016334010594
31.009497869018190385759 5354.91449707695846882 31.009497869018190385759 399.86005303165177338
32.009497869018190385759 5364.54720694756269950 32.009497869018190385759 398.44133688438842000
33.009497869018190385759 5373.78126286736460315 33.009497869018190385759 397.09443831963704952
34.009497869018190385759 5382.64314295838266844 34.009497869018190385759 395.79270389138309838
35.009497869018190385759 5391.15705258494654117 35.009497869018190385759 394.53670601313177713
36.009497869018190385759 5399.34472876987547352 36.009497869018190385759 393.32702549271789394
37.009497869018190385759 5407.22610275348870346 37.009497869018190385759 392.15657134177030230
38.009497869018190385759 5414.81940018095428968 38.009497869018190385759 391.02099206560188804
39.009497869018190385759 5422.14120453013129008 39.009497869018190385759 389.90815620236884342
40.009497869018190385759 5429.20683607386126823 40.009497869018190385759 388.80999121677564290
41.009497869018190385759 5436.03040240815425932 41.009497869018190385759 387.76789708228852760
42.009497869018190385759 5442.62485347924848611 42.009497869018190385759 386.72512139363698225
43.009497869018190385759 5449.00220584259750467 43.009497869018190385759 385.72800257526324685
44.009497869018218807469 5455.17360678927798290 44.009497869018218807469 384.72369003408539356
46.009497869018190385759 5466.93907660519107594 46.009497869018190385759 382.77460062197980051
48.009497869018190385759 5477.99557167513830791 48.009497869018190385759 380.89912825125401241
50.009497869018190385759 5488.40775325297909149 50.009497869018190385759 379.04245389841196356
52.009497869018190385759 5498.23217098626537336 52.009497869018190385759 377.23836759032076316
54.009497869018190385759 5507.51874084299197420 54.009497869018190385759 375.49559183387538042
56.009497869018190385759 5516.31146225486554613 56.009497869018190385759 373.78778135612810729
58.009497869018218807469 5524.64967718864318158 58.009497869018218807469 372.03196115269929578
60.009497869018190385759 5532.56826182183976925 60.009497869018190385759 370.39050736137232889
62.009497869018190385759 5540.09874060231413750 62.009497869018190385759 368.77839483666309661
64.009497869018190385759 5547.26927041019371245 64.009497869018190385759 367.19396557259346991
66.009497869018190385759 5554.10537777264835313 66.009497869018190385759 365.61024793707827030
68.009497869018190385759 5560.63024337100523553 68.009497869018190385759 364.03790582694239220
70.009497869018190385759 5566.86463901493334561 70.009497869018190385759 362.54165151968089731
72.009497869018218807469 5572.82787760518658615 72.009497869018218807469 361.04781584109588266
74.009497869018190385759 5578.53733501820988749 74.009497869018190385759 359.59810643579743328
76.009497869018190385759 5584.00890933117079840 76.009497869018190385759 358.17867188890778607
78.009497869018190385759 5589.25742073372839513 78.009497869018190385759 356.77883230264632175
80.009497869018190385759 5594.29623301095489296 80.009497869018190385759 355.41829235650840246
82.009497869018218807469 5599.13770428001862456 82.009497869018218807469 354.09267687441683847
84.009497869018190385759 5603.79343358536243613 84.009497869018190385759 352.81218038019392225
86.009497869018190385759 5608.27390108361760213 86.009497869018190385759 351.53660945165933072
88.009497869018190385759 5612.58881817191650043 88.009497869018190385759 350.31253325026324319
91.009497869018218807469 5618.77084337764244992 91.009497869018218807469 348.51936426913454170
94.009497869018190385759 5624.62891361864876671 94.009497869018190385759 346.79690424088619238
97.009497869018190385759 5630.18820405671158369 97.009497869018190385759 345.13210516889154178
99.504748934509109403734 5634.60098129344714835 99.504748934509109403734 344.06424865163387494
nan nan nan nan

