Time Pressure difference Time.1 Pressure.1 difference.1
(hr) (psi) (hr) (psi)
0.000200000000006639311 0.36536674917217332 0.000200000000006639311 0.29125730729528870
0.000399999999999067768 0.73052656870423971 0.000399999999999067768 0.76237425442929407
0.000600000000005707079 1.09551101596507983 0.000600000000005707079 1.11542887662310908
0.000799999999998135536 1.46033520674971418 0.000799999999998135536 1.47485429952666802
0.001007140329434719206 1.83802275927380254 0.001007140329434719206 1.85216583618411712
0.001267914553963578328 2.31328020184159699 0.001267914553963578328 2.33052283706376873
0.001596209851982166583 2.91125409991796236 0.001596209851982166583 2.93210125681156519
0.002009509145210586212 3.66354041724756296 0.002009509145210586212 3.68846922164004987
0.002529822128138903281 4.60982161216261499 0.002529822128138903281 4.63918927559025462
0.003184857364445292660 5.79991007947278980 0.003184857364445292660 5.83379248193554023
0.004009497869020606231 7.29629375853193007 0.004009497869020606231 7.33421238250563956
0.005047658755842121536 9.17729951678809641 0.005047658755842121536 9.21777052309201927
0.006354625877804664924 11.54101216547967468 0.006354625877804664924 11.58081452968077762
0.008000000000009777068 14.51011091683360021 0.008000000000009777068 14.54311390477761279
0.010071403294347192059 18.23780909545993723 0.010071403294347192059 18.25311274770147207
0.012679145539692626699 22.91510385926089910 0.012679145539692626699 22.89411440927510100
0.015962098519750611558 28.77955514745300647 0.015962098519750611558 28.69141814892541476
0.020095091452091651263 36.12580810972216483 0.020095091452091651263 35.92032331084038077
0.025298221281346400247 45.31803667900685895 0.025298221281346400247 44.91473482142802709
0.031848573644282396344 56.80439597774414295 0.031848573644282396344 56.07580615110391875
0.040094978690191851456 71.13339566717836249 0.040094978690191851456 69.87959011816450072
0.050476587558421215363 88.97179922105277683 0.050476587558421215363 86.88196818014894518
0.063546258777947173257 111.12315273057376430 0.063546258777947173257 107.71811952595335526
0.079999999999998294697 138.54527047361651171 0.079999999999998294697 133.09239904959602541
0.100714032943542974863 172.36385707862598338 0.100714032943542974863 163.75267346585158634
0.126791455396897845276 213.87782764499934274 0.126791455396897845276 200.44095171526805643
0.159620985197506115583 264.54972043797295100 0.159620985197506115583 243.80974805850070197
0.200950914520774404082 325.97188390577622386 0.200950914520774404082 294.29160864965001565
0.252982212813464002465 399.79605935446829790 0.252982212813464002465 351.90895529679102083
0.318485736442795541734 487.61121015714348914 0.318485736442795541734 416.01572947786507939
0.400949786901819038576 590.75351566297479167 0.400949786901819038576 484.97678523213693325
0.504765875584169521062 710.03655968514692631 0.504765875584169521062 555.82424788361834089
0.635462587779443310865 845.40442806143414600 0.635462587779443310865 623.99056661763597731
0.799999999999997157829 995.54266849409600582 0.799999999999997157829 683.30144193151829768
1.007140329435330272645 1157.53509576400006154 1.007140329435330272645 726.47833954078112129
1.267914553968893187630 1326.71633595629964475 1.267914553968893187630 746.35906897597681109
1.596209851975103788391 1496.90172747715951118 1.596209851975103788391 737.79047540353280965
2.009509145207687197399 1661.11766172154443666 2.009509145207687197399 699.68081257343771995
2.529822128134711078928 1812.77028005073952954 2.529822128134711078928 636.26359606735604757
3.184857364427983839050 1946.93390190665240880 3.184857364427983839050 556.64940618777973214
4.009497869018190385759 2061.27594173260649768 4.009497869018190385759 472.42869502695430128
5.009497869018190385759 2153.38452034237207044 5.009497869018190385759 396.38617106676321100
6.009497869018190385759 2216.76551658528842381 6.009497869018190385759 343.04637841748723304
7.009497869018204596614 2263.40314587118746203 7.009497869018204596614 305.93840205613656735
8.009497869018190385759 2299.57616970057097205 8.009497869018190385759 279.82129638704930130
9.009497869018204596614 2328.80463430963982319 9.009497869018204596614 261.51786372606773057
10.009497869018190385759 2353.18128321858011986 10.009497869018190385759 248.45979437199557083
11.009497869018190385759 2374.01809822485256518 11.009497869018190385759 237.86783997083819031
12.009497869018190385759 2392.17469327833350690 12.009497869018190385759 229.79149822344888321
13.009497869018190385759 2408.23857376019259391 13.009497869018190385759 223.50248657372955563
14.009497869018204596614 2422.62548336923191528 14.009497869018204596614 218.50758235033637789
15.009497869018190385759 2435.63895580214420988 15.009497869018190385759 214.46533496585652756
16.009497869018190385759 2447.50676621219872686 16.009497869018190385759 211.13670019444921877
17.009497869018190385759 2458.40406611991329555 17.009497869018190385759 208.41467043168819373
18.009497869018190385759 2468.46839637447055793 18.009497869018190385759 206.03146654677919969
19.009497869018204596614 2477.80939056631586936 19.009497869018204596614 204.06032460404759377
20.009497869018190385759 2486.51630427240206700 20.009497869018190385759 202.25238299994751401
21.009497869018204596614 2494.66287785594613524 21.009497869018204596614 200.65974963462238634
22.009497869018190385759 2502.31026477296791199 22.009497869018190385759 199.24180747861055352
23.009497869018190385759 2509.51022691188609315 23.009497869018190385759 197.98929819424031962
24.009497869018190385759 2516.30691626873658606 24.009497869018190385759 196.82878524962723077
25.009497869018190385759 2522.73802043008345208 25.009497869018190385759 195.76809559764862456
26.009497869018204596614 2528.83649557237458794 26.009497869018204596614 194.81317442947431573
27.009497869018190385759 2534.63071665921870590 27.009497869018190385759 193.90341873395192351
28.009497869018190385759 2540.14589641840530021 28.009497869018190385759 193.05501694610964591
29.009497869018190385759 2545.40399681594681169 29.009497869018190385759 192.26558907633929607
30.009497869018190385759 2550.42473217735232538 30.009497869018190385759 191.51410318663727139
31.009497869018190385759 2555.22550458346177038 31.009497869018190385759 190.80278617488599480
32.009497869018190385759 2559.82198244563051048 32.009497869018190385759 190.12581183939840912
33.009497869018190385759 2564.22823304214443851 33.009497869018190385759 189.48310698078336145
34.009497869018190385759 2568.45689104209805009 34.009497869018190385759 188.86195326990997501
35.009497869018190385759 2572.51950661390355890 35.009497869018190385759 188.26262384757049517
36.009497869018190385759 2576.42645209779902871 36.009497869018190385759 187.68539586011212350
37.009497869018190385759 2580.18723816171905128 37.009497869018190385759 187.12688567286647867
38.009497869018190385759 2583.81056160808611821 38.009497869018190385759 186.58501686608613568
39.009497869018190385759 2587.30433563992119161 39.009497869018190385759 186.05400062265209726
40.009497869018190385759 2590.67587069176624937 40.009497869018190385759 185.52998493930923019
41.009497869018190385759 2593.93189854041293074 41.009497869018190385759 185.03272480339640538
42.009497869018190385759 2597.07859856238064822 42.009497869018190385759 184.53513944761590437
43.009497869018190385759 2600.12170474445656509 43.009497869018190385759 184.05934035928319759
44.009497869018218807469 2603.06653628314461457 44.009497869018218807469 183.58010861409076142
46.009497869018190385759 2608.68071155399866257 46.009497869018190385759 182.65005399244472528
48.009497869018190385759 2613.95658257107152167 48.009497869018190385759 181.75512750250055660
50.009497869018190385759 2618.92500399788877985 50.009497869018190385759 180.86917093630745512
52.009497869018190385759 2623.61295985105471118 52.009497869018190385759 180.00830801320739738
54.009497869018190385759 2628.04426872834073947 54.009497869018190385759 179.17670088594704225
56.009497869018190385759 2632.23992601074587583 56.009497869018190385759 178.36177827754374903
58.009497869018218807469 2636.21870465849360698 58.009497869018218807469 177.52394668047281812
60.009497869018190385759 2639.99724667368263908 60.009497869018190385759 176.74068775178525925
62.009497869018190385759 2643.59059470045212947 62.009497869018190385759 175.97142971010339352
64.009497869018190385759 2647.01218446747270718 64.009497869018190385759 175.21538139822666835
66.009497869018190385759 2650.27419656760093858 66.009497869018190385759 174.45967265693190029
68.009497869018190385759 2653.38769221725169700 68.009497869018190385759 173.70939201959535580
70.009497869018190385759 2656.36258318212594531 70.009497869018190385759 172.99541849689120454
72.009497869018218807469 2659.20808507464880677 72.009497869018218807469 172.28259908069682638
74.009497869018190385759 2661.93248920977657690 74.009497869018190385759 171.59083557099464201
76.009497869018190385759 2664.54338173520000055 76.009497869018190385759 170.91351843394622279
78.009497869018190385759 2667.04783445881139414 78.009497869018190385759 170.24555150093667066
80.009497869018190385759 2669.45222423022778457 80.009497869018190385759 169.59633733098610264
82.009497869018218807469 2671.76244802057453853 82.009497869018218807469 168.96378820420542866
84.009497869018190385759 2673.98404059127597066 84.009497869018190385759 168.35276868141860973
86.009497869018190385759 2676.12200279968328687 86.009497869018190385759 167.74409951008527742
88.009497869018190385759 2678.18096867116446447 88.009497869018190385759 167.16000227920170573
91.009497869018218807469 2681.13086982911408995 91.009497869018218807469 166.30434881972831818
94.009497869018190385759 2683.92618812889850233 94.009497869018190385759 165.48243582798809825
97.009497869018190385759 2686.57893650097457794 97.009497869018190385759 164.68803714037323971
99.504748934509109403734 2688.68459868241689037 99.504748934509109403734 164.17848386746442202
nan nan nan nan

