Time Pressure difference Time.1 Pressure.1 difference.1
(hr) (psi) (hr) (psi)
0.000200000000006639311 0.59174432496905527 0.000200000000006639311 0.47171741568781378
0.000399999999999067768 1.18315350876700309 0.000399999999999067768 1.23473370136498417
0.000600000000005707079 1.77427866139219104 0.000600000000005707079 1.80653742888161850
0.000799999999998135536 2.36514426423473090 0.000799999999998135536 2.38865924137462660
0.001007140329434719206 2.97684323882385815 0.001007140329434719206 2.99974922443486802
0.001267914553963578328 3.74656542940632242 0.001267914553963578328 3.77449142859302800
0.001596209851982166583 4.71503796137054998 0.001596209851982166583 4.74880180772898175
0.002009509145210586212 5.93343334091803509 0.002009509145210586212 5.97380778265620815
0.002529822128138903281 7.46602087983512330 0.002529822128138903281 7.51358445317692691
0.003184857364445292660 9.39347623349693350 0.003184857364445292660 9.44835183292977021
0.004009497869020606231 11.81700424217813605 0.004009497869020606231 11.87841686551596787
0.005047658755842121536 14.86346231534473006 0.005047658755842121536 14.92900875152260731
0.006354625877804664924 18.69170763019601011 0.006354625877804664924 18.75617114032581512
0.008000000000009777068 23.50043020926808879 0.008000000000009777068 23.55388151776055494
0.010071403294347192059 29.53777281747611383 0.010071403294347192059 29.56255845926137837
0.012679145539692626699 37.11307253743621715 0.012679145539692626699 37.07907823461184194
0.015962098519750611558 46.61107906569268522 0.015962098519750611558 46.46833326625505833
0.020095091452091651263 58.50899673351356967 0.020095091452091651263 58.17619561277336970
0.025298221281346400247 73.39663799265119337 0.025298221281346400247 72.74345434632192564
0.031848573644282396344 91.99983038764483467 0.031848573644282396344 90.81981360691317207
0.040094978690191851456 115.20693466825470352 0.040094978690191851456 113.17628376768786325
0.050476587558421215363 144.09783427373238851 0.050476587558421215363 140.71316486579931393
0.063546258777947173257 179.97394439963085233 0.063546258777947173257 174.45918674932309500
0.079999999999998294697 224.38653145043582526 0.079999999999998294697 215.55511554501771343
0.100714032943542974863 279.15877535968809298 0.100714032943542974863 265.21218868842936445
0.126791455396897845276 346.39438600363217802 0.126791455396897845276 324.63215642267789462
0.159620985197506115583 428.46207569794700021 0.159620985197506115583 394.87182430431437297
0.200950914520774404082 527.94079602962835907 0.200950914520774404082 476.63173974920539422
0.252982212813464002465 647.50569066293155629 0.252982212813464002465 569.94821689298044021
0.318485736442795541734 789.73022875109120378 0.318485736442795541734 673.77490582861526036
0.400949786901819038576 956.77847297579739916 0.400949786901819038576 785.46354054680944046
0.504765875584169521062 1149.96809552651347985 0.504765875584169521062 900.20738096868490175
0.635462587779443310865 1369.20853838651419210 0.635462587779443310865 1010.60886757434911942
0.799999999999997157829 1612.37092778884334621 0.799999999999997157829 1106.66816677291444648
1.007140329435330272645 1874.73223938087494389 1.007140329435330272645 1176.59703738837197307
1.267914553968893187630 2148.73648033013478198 1.267914553968893187630 1208.79566752145683495
1.596209851975103788391 2424.36703470674365235 1.596209851975103788391 1194.91805925264634425
2.009509145207687197399 2690.32951590892480453 2.009509145207687197399 1133.19603129775464367
2.529822128134711078928 2935.94457657420480245 2.529822128134711078928 1030.48614306125318762
3.184857364427983839050 3153.23463383970329232 3.184857364427983839050 901.54379908772511953
4.009497869018190385759 3338.42185551681814104 4.009497869018190385759 765.14077941723121512
5.009497869018190385759 3487.59998624926356570 5.009497869018190385759 641.98306976872117957
6.009497869018190385759 3590.25121251056998517 6.009497869018190385759 555.59447620690991698
7.009497869018204596614 3665.78504946335851855 7.009497869018204596614 495.49476961711417289
8.009497869018190385759 3724.37051630320229378 8.009497869018190385759 453.19576704143975121
9.009497869018204596614 3771.70864463360794616 9.009497869018204596614 423.55171095497530587
10.009497869018190385759 3811.18882088476175340 10.009497869018190385759 402.40299270726387704
11.009497869018190385759 3844.93591762612823004 11.009497869018190385759 385.24836951996798007
12.009497869018190385759 3874.34215699520518683 12.009497869018190385759 372.16800737328509285
13.009497869018190385759 3900.35905681890017149 13.009497869018190385759 361.98238713877384498
14.009497869018204596614 3923.65995142488327474 14.009497869018204596614 353.89269032138759030
15.009497869018190385759 3944.73644094606925137 15.009497869018190385759 347.34590697203645959
16.009497869018190385759 3963.95742773775236856 16.009497869018190385759 341.95488345843597244
17.009497869018190385759 3981.60658544705802342 17.009497869018190385759 337.54631133697108680
18.009497869018190385759 3997.90667385478081997 18.009497869018190385759 333.68649821129844213
19.009497869018204596614 4013.03525442517275224 19.009497869018204596614 330.49405647717043166
20.009497869018190385759 4027.13688459607737968 20.009497869018190385759 327.56593237576919364
21.009497869018204596614 4040.33099352067802101 21.009497869018204596614 324.98651933990095131
22.009497869018190385759 4052.71662472341813555 22.009497869018190385759 322.69003443574513312
23.009497869018190385759 4064.37761123997870527 23.009497869018190385759 320.66148295240287780
24.009497869018190385759 4075.38546120061846523 24.009497869018190385759 318.78192781887236151
25.009497869018190385759 4085.80121304280010008 25.009497869018190385759 317.06404548958579426
26.009497869018204596614 4095.67824225958656825 26.009497869018204596614 315.51746473657459546
27.009497869018190385759 4105.06250465764151159 27.009497869018190385759 314.04403353038685509
28.009497869018190385759 4113.99483451819196489 28.009497869018190385759 312.66997049814114007
29.009497869018190385759 4122.51080122127132199 29.009497869018190385759 311.39142103252220295
30.009497869018190385759 4130.64233389088258264 30.009497869018190385759 310.17432201753780419
31.009497869018190385759 4138.41761676273654302 31.009497869018190385759 309.02228011467866509
32.009497869018190385759 4145.86202623882309126 32.009497869018190385759 307.92585926608711588
33.009497869018190385759 4152.99834554206063331 33.009497869018190385759 306.88494091876299308
34.009497869018190385759 4159.84703765588074020 34.009497869018190385759 305.87892659431889797
35.009497869018190385759 4166.42680911727893545 35.009497869018190385759 304.90825866884421202
36.009497869018190385759 4172.75445886454417632 36.009497869018190385759 303.97338600578524392
37.009497869018190385759 4178.84539028014114592 37.009497869018190385759 303.06882850434635657
38.009497869018190385759 4184.71368861810697126 38.009497869018190385759 302.19122321591623859
39.009497869018190385759 4190.37217002274246624 39.009497869018190385759 301.33119463030897123
40.009497869018190385759 4195.83267440055988118 40.009497869018190385759 300.48250408166029501
41.009497869018190385759 4201.10610446977989341 41.009497869018190385759 299.67714654946428254
42.009497869018190385759 4206.20246828667950467 42.009497869018190385759 298.87126229443032344
43.009497869018190385759 4211.13105255878963362 43.009497869018190385759 298.10066285979581835
44.009497869018218807469 4215.90047220345331880 44.009497869018218807469 297.32450392851598053
46.009497869018190385759 4224.99313420249018236 46.009497869018190385759 295.81819678503006799
48.009497869018190385759 4233.53788202285068110 48.009497869018190385759 294.36878281156691628
50.009497869018190385759 4241.58468756833462976 50.009497869018190385759 292.93389643670752776
52.009497869018190385759 4249.17725388177677814 52.009497869018190385759 291.53965147469352814
54.009497869018190385759 4256.35415732539968303 54.009497869018190385759 290.19278890639714064
56.009497869018190385759 4263.14940180783651158 56.009497869018190385759 288.87294841761638509
58.009497869018218807469 4269.59339182730946050 58.009497869018218807469 287.51600476040130161
60.009497869018190385759 4275.71308060361752723 60.009497869018190385759 286.24744644993012344
62.009497869018190385759 4281.53283105244099715 62.009497869018190385759 285.00156383572550567
64.009497869018190385759 4287.07440354526897863 64.009497869018190385759 283.77707556751516904
66.009497869018190385759 4292.35752564820995758 66.009497869018190385759 282.55313726441590916
68.009497869018190385759 4297.40011199650507479 68.009497869018190385759 281.33799026408263444
70.009497869018190385759 4302.21821558654119144 70.009497869018190385759 280.18164590270993131
72.009497869018218807469 4306.82676193183488067 72.009497869018218807469 279.02717072067298432
74.009497869018190385759 4311.23917956298646459 74.009497869018190385759 277.90679747375213537
76.009497869018190385759 4315.46775492876349745 76.009497869018190385759 276.80982142718846717
78.009497869018190385759 4319.52394145834750816 78.009497869018190385759 275.72798887737121731
80.009497869018190385759 4323.41806703346628638 80.009497869018190385759 274.67652811464944307
82.009497869018218807469 4327.15968232944942429 82.009497869018218807469 273.65205788881559101
84.009497869018190385759 4330.75775139042707451 84.009497869018190385759 272.66245679382376466
86.009497869018190385759 4334.22037355484008003 86.009497869018190385759 271.67666230448890019
88.009497869018190385759 4337.55505404373070633 88.009497869018190385759 270.73066428362733404
91.009497869018218807469 4342.33268439293897245 91.009497869018218807469 269.34485651668984474
94.009497869018190385759 4346.85995389441268344 94.009497869018190385759 268.01369447311969907
97.009497869018190385759 4351.15631856991512905 97.009497869018190385759 266.72709432074117331
99.504748934509109403734 4354.56662793439227244 99.504748934509109403734 265.90182694707789324
nan nan nan nan

