Time Pressure difference Time.1 Pressure.1 difference.1
(hr) (psi) (hr) (psi)
0.000200000000006639311 0.39449621664603679 0.000200000000006639311 0.31447827712520920
0.000399999999999067768 0.78876900584466880 0.000399999999999067768 0.82315580090998952
0.000600000000005707079 1.18285244092812714 0.000600000000005707079 1.20435828592107907
0.000799999999998135536 1.57676284282315349 0.000799999999998135536 1.59243949424975106
0.001007140329434719206 1.98456215921590529 0.001007140329434719206 1.99983281628991216
0.001267914553963578328 2.49771028627088176 0.001267914553963578328 2.51632761906201896
0.001596209851982166583 3.14335864091369999 0.001596209851982166583 3.16586787181932072
0.002009509145210586212 3.95562222727868962 0.002009509145210586212 3.98253852177080603
0.002529822128138903281 4.97734725322341554 0.002529822128138903281 5.00905630211795128
0.003184857364445292660 6.26231748899795537 0.003184857364445292660 6.29890122195318014
0.004009497869020606231 7.87800282811875796 0.004009497869020606231 7.91894457701064436
0.005047658755842121536 9.90897487689648848 0.005047658755842121536 9.95267250101507273
0.006354625877804664924 12.46113842013067341 0.006354625877804664924 12.50411409355054460
0.008000000000009777068 15.66695347284539075 0.008000000000009777068 15.70258767850703663
0.010071403294347192059 19.69184854498407589 0.010071403294347192059 19.70837230617425107
0.012679145539692626699 24.74204835829081262 0.012679145539692626699 24.71938548974122796
0.015962098519750611558 31.07405271046178896 0.015962098519750611558 30.97888884417003652
0.020095091452091651263 39.00599782234238688 0.020095091452091651263 38.78413040851557980
0.025298221281346400247 48.93109199510080032 0.025298221281346400247 48.49563623088128850
0.031848573644282396344 61.33322025842989689 0.031848573644282396344 60.54654240460878611
0.040094978690191851456 76.80462311216980709 0.040094978690191851456 75.45085584512523269
0.050476587558421215363 96.06522284915492094 0.050476587558421215363 93.80877657719955209
0.063546258777947173257 119.98262959975390629 0.063546258777947173257 116.30612449954871579
0.079999999999998294697 149.59102096695721684 0.079999999999998294697 143.70341036334517071
0.100714032943542974863 186.10585023979206198 0.100714032943542974863 176.80812579228620507
0.126791455396897845276 230.92959066908812815 0.126791455396897845276 216.42143761511860589
0.159620985197506115583 285.64138379863135242 0.159620985197506115583 263.24788286954293426
0.200950914520774404082 351.96053068641896289 0.200950914520774404082 317.75449316613696737
0.252982212813464002465 431.67046044195438981 0.252982212813464002465 379.96547792865368365
0.318485736442795541734 526.48681916739406006 0.318485736442795541734 449.18327055241019252
0.400949786901819038576 637.85231531719819031 0.400949786901819038576 523.64236036453962697
0.504765875584169521062 766.64539701767557744 0.504765875584169521062 600.13825397912319204
0.635462587779443310865 912.80569225767612807 0.635462587779443310865 673.73924504956596593
0.799999999999997157829 1074.91395185922897326 0.799999999999997157829 737.77877784860982047
1.007140329435330272645 1249.82149292058329593 1.007140329435330272645 784.39802492558135327
1.267914553968893187630 1432.49098688675644553 1.267914553968893187630 805.86377834763788996
1.596209851975103788391 1616.24468980449569244 1.596209851975103788391 796.61203950176422950
2.009509145207687197399 1793.55301060595002127 2.009509145207687197399 755.46402086516980035
2.529822128134711078928 1957.29638438280335322 2.529822128134711078928 686.99076204083542052
3.184857364427983839050 2102.15642255980219488 3.184857364427983839050 601.02919939181674636
4.009497869018190385759 2225.61457034454497261 4.009497869018190385759 510.09385294482086692
5.009497869018190385759 2325.06665749950889222 5.009497869018190385759 427.98871317914750989
6.009497869018190385759 2393.50080834037999011 6.009497869018190385759 370.39631747127327799
7.009497869018204596614 2443.85669964223870920 7.009497869018204596614 330.32984641140939175
8.009497869018190385759 2482.91367753546819586 8.009497869018190385759 302.13051136095981519
9.009497869018204596614 2514.47242975573817603 9.009497869018204596614 282.36780730331685163
10.009497869018190385759 2540.79254725650753244 10.009497869018190385759 268.26866180484256574
11.009497869018190385759 2563.29061175075230494 11.009497869018190385759 256.83224634664532005
12.009497869018190385759 2582.89477133013724597 12.009497869018190385759 248.11200491552335734
13.009497869018190385759 2600.23937121259996275 13.009497869018190385759 241.32159142584922051
14.009497869018204596614 2615.77330094992203158 14.009497869018204596614 235.92846021425839353
15.009497869018190385759 2629.82429396404631916 15.009497869018190385759 231.56393798135761131
16.009497869018190385759 2642.63828515850173062 16.009497869018190385759 227.96992230562395321
17.009497869018190385759 2654.40439029803883386 17.009497869018190385759 225.03087422464739120
18.009497869018190385759 2665.27111590318736489 18.009497869018190385759 222.45766547419896142
19.009497869018204596614 2675.35683628344850149 19.009497869018204596614 220.32937098478032567
20.009497869018190385759 2684.75792306405128329 20.009497869018190385759 218.37728825051280523
21.009497869018204596614 2693.55399568045231717 21.009497869018204596614 216.65767955993396754
22.009497869018190385759 2701.81108314894481737 22.009497869018190385759 215.12668962383006033
23.009497869018190385759 2709.58507415998610668 23.009497869018190385759 213.77432196826859467
24.009497869018190385759 2716.92364080041215857 24.009497869018190385759 212.52128521258157434
25.009497869018190385759 2723.86747536186658181 25.009497869018190385759 211.37603032639054845
26.009497869018204596614 2730.45216150639089392 26.009497869018204596614 210.34497649104972083
27.009497869018190385759 2736.70833643842752281 27.009497869018190385759 209.36268902025790339
28.009497869018190385759 2742.66322301212812818 28.009497869018190385759 208.44664699876076952
29.009497869018190385759 2748.34053414751451783 29.009497869018190385759 207.59428068834810688
30.009497869018190385759 2753.76155592725490351 30.009497869018190385759 206.78288134502520279
31.009497869018190385759 2758.94507784182451360 31.009497869018190385759 206.01485340978581462
32.009497869018190385759 2763.90801749254887909 32.009497869018190385759 205.28390617739142954
33.009497869018190385759 2768.66556369470754362 33.009497869018190385759 204.58996061250869047
34.009497869018190385759 2773.23135843725412997 34.009497869018190385759 203.91928439621261759
35.009497869018190385759 2777.61787274485277521 35.009497869018190385759 203.27217244589616030
36.009497869018190385759 2781.83630590969642071 36.009497869018190385759 202.64892400385684823
37.009497869018190385759 2785.89692685342743061 37.009497869018190385759 202.04588566956425666
38.009497869018190385759 2789.80912574540479909 38.009497869018190385759 201.46081547727752081
39.009497869018190385759 2793.58144668182831083 39.009497869018190385759 200.88746308687265696
40.009497869018190385759 2797.22178293370689062 40.009497869018190385759 200.32166938777351106
41.009497869018190385759 2800.73740297985341385 41.009497869018190385759 199.78476436630953117
42.009497869018190385759 2804.13497885778633645 42.009497869018190385759 199.24750819628687282
43.009497869018190385759 2807.42070170585975575 43.009497869018190385759 198.73377523986388837
44.009497869018218807469 2810.60031480230190937 44.009497869018218807469 198.21633595234402492
46.009497869018190385759 2816.66208946832603033 46.009497869018190385759 197.21213119002004532
48.009497869018190385759 2822.35858801523409056 48.009497869018190385759 196.24585520771128699
50.009497869018190385759 2827.72312504555657142 50.009497869018190385759 195.28926429113835184
52.009497869018190385759 2832.78483592118436718 52.009497869018190385759 194.35976764979568543
54.009497869018190385759 2837.56943821693312202 54.009497869018190385759 193.46185927093145551
56.009497869018190385759 2842.09960120522418947 56.009497869018190385759 192.58196561174426620
58.009497869018218807469 2846.39559455153994350 58.009497869018218807469 191.67733650693418213
60.009497869018190385759 2850.47538706907835149 60.009497869018190385759 190.83163096662011071
62.009497869018190385759 2854.35522070162687669 62.009497869018190385759 190.00104255715035606
64.009497869018190385759 2858.04960236351234926 64.009497869018190385759 189.18471704501013164
66.009497869018190385759 2861.57168376547360822 66.009497869018190385759 188.36875817627728225
68.009497869018190385759 2864.93340799767020144 68.009497869018190385759 187.55866017605509910
70.009497869018190385759 2868.14547705769427921 70.009497869018190385759 186.78776393513993526
72.009497869018218807469 2871.21784128788931412 72.009497869018218807469 186.01811381378203691
74.009497869018190385759 2874.15945304199112798 74.009497869018190385759 185.27119831583476639
76.009497869018190385759 2876.97850328584218005 76.009497869018190385759 184.53988095145899706
78.009497869018190385759 2879.68262763889879352 78.009497869018190385759 183.81865925158081154
80.009497869018190385759 2882.27871135564464566 80.009497869018190385759 183.11768540976629538
82.009497869018218807469 2884.77312155296613128 82.009497869018218807469 182.43470525921040348
84.009497869018190385759 2887.17183426028441318 84.009497869018190385759 181.77497119588250030
86.009497869018190385759 2889.48024903655959861 86.009497869018190385759 181.11777486965925732
88.009497869018190385759 2891.70336936248713755 88.009497869018190385759 180.48710952241825112
91.009497869018218807469 2894.88845626195916338 91.009497869018218807469 179.56323767779321088
94.009497869018190385759 2897.90663592960845563 94.009497869018190385759 178.67579631541309482
97.009497869018190385759 2900.77087904661038920 97.009497869018190385759 177.81806288049412501
99.504748934509109403734 2903.04441862292787846 99.504748934509109403734 177.26788463138524321
nan nan nan nan

