Time Pressure difference Time.1 Pressure.1 difference.1
(hr) (psi) (hr) (psi)
0.000200000000006639311 0.53348539002132822 0.000200000000006639311 0.42527547602797272
0.000399999999999067768 1.06666863448614491 0.000399999999999067768 1.11317060840359328
0.000600000000005707079 1.59959581146609620 0.000600000000005707079 1.62867861028567851
0.000799999999998135536 2.13228899208785139 0.000799999999998135536 2.15348885192846096
0.001007140329434719206 2.68376443893965222 0.001007140329434719206 2.70441526422327794
0.001267914553963578328 3.37770526054775333 0.001267914553963578328 3.40288186459652797
0.001596209851982166583 4.25082887937907472 0.001596209851982166583 4.28126857771346980
0.002009509145210586212 5.34926972085578090 0.002009509145210586212 5.38566918239469672
0.002529822128138903281 6.73096959771352221 0.002529822128138903281 6.77385040012153361
0.003184857364445292660 8.46866141444660236 0.003184857364445292660 8.51813435289449217
0.004009497869020606231 10.65358610300448028 0.004009497869020606231 10.70895247650595650
0.005047658755842121536 13.40011159512794947 0.005047658755842121536 13.45920479567650041
0.006354625877804664924 16.85145512089401265 0.006354625877804664924 16.90957201258628473
0.008000000000009777068 21.18674509724450772 0.008000000000009777068 21.23493397030171081
0.010071403294347192059 26.62969391842783651 0.010071403294347192059 26.65203934231581329
0.012679145539692626699 33.45918353937639012 0.012679145539692626699 33.42853607367959512
0.015962098519750611558 42.02208393967512023 0.015962098519750611558 41.89339187576580770
0.020095091452091651263 52.74861730827313266 0.020095091452091651263 52.44858141742296453
0.025298221281346400247 66.17052736046331063 0.025298221281346400247 65.58165152741540282
0.031848573644282396344 82.94218182627332681 0.031848573644282396344 81.87834109990343734
0.040094978690191851456 103.86447977827181433 0.040094978690191851456 102.03375231376639931
0.050476587558421215363 129.91098701752807187 0.050476587558421215363 126.85954807169810010
0.063546258777947173257 162.25499066127056835 0.063546258777947173257 157.28317680213231711
0.079999999999998294697 202.29503046375438657 0.079999999999998294697 194.33309291751950809
0.100714032943542974863 251.67478903735593576 0.100714032943542974863 239.10128403556004173
0.126791455396897845276 312.29085995545460719 0.126791455396897845276 292.67118462297685255
0.159620985197506115583 386.27874897663019738 0.159620985197506115583 355.99555468222996524
0.200950914520774404082 475.96350246834293785 0.200950914520774404082 429.70597071623160446
0.252982212813464002465 583.75688848795937247 0.252982212813464002465 513.83517162925534194
0.318485736442795541734 711.97901073058994825 0.318485736442795541734 607.43982367952514778
0.400949786901819038576 862.58087366735048818 0.400949786901819038576 708.13239028200405301
0.504765875584169521062 1036.75042086145572284 0.504765875584169521062 811.57936877767508577
0.635462587779443310865 1234.40600999403022797 0.635462587779443310865 911.11151071048902850
0.799999999999997157829 1453.62836105857741131 0.799999999999997157829 997.71349493873162828
1.007140329435330272645 1690.15944506770847511 1.007140329435330272645 1060.75766661877150909
1.267914553968893187630 1937.18717846922118042 1.267914553968893187630 1089.78624877813467720
1.596209851975103788391 2185.68111005207128983 1.596209851975103788391 1077.27493105618327718
2.009509145207687197399 2425.45881814011363531 2.009509145207687197399 1021.62961471429082394
2.529822128134711078928 2646.89236791007760985 2.529822128134711078928 929.03181111429444172
3.184857364427983839050 2842.78959253340372015 3.184857364427983839050 812.78421267965097741
4.009497869018190385759 3009.74459829294028168 4.009497869018190385759 689.81046358149819753
5.009497869018190385759 3144.23571193498992216 5.009497869018190385759 578.77798554395269548
6.009497869018190385759 3236.78062900038730731 6.009497869018190385759 500.89459809933788392
7.009497869018204596614 3304.87794192125556947 7.009497869018204596614 446.71188090656841041
8.009497869018190385759 3357.69550063340784618 8.009497869018190385759 408.57733709361866659
9.009497869018204596614 3400.37305374141033099 9.009497869018204596614 381.85182380047700690
10.009497869018190385759 3435.96629280890601876 10.009497869018190385759 362.78525784156983036
11.009497869018190385759 3466.39089057432920526 11.009497869018190385759 347.31955676835366376
12.009497869018190385759 3492.90200089159861818 12.009497869018190385759 335.52699398913608775
13.009497869018190385759 3516.35746191408543382 13.009497869018190385759 326.34417743453445837
14.009497869018204596614 3537.36431626350258739 14.009497869018204596614 319.05093459354355900
15.009497869018190385759 3556.36576462226503281 15.009497869018190385759 313.14870094103423526
16.009497869018190385759 3573.69438984514681579 16.009497869018190385759 308.28843923608644673
17.009497869018190385759 3589.60593709080740155 17.009497869018190385759 304.31390375105269186
18.009497869018190385759 3604.30123479734811553 18.009497869018190385759 300.83410035645891867
19.009497869018204596614 3617.94036299090794273 19.009497869018204596614 297.95596371570502470
20.009497869018190385759 3630.65364701277849235 20.009497869018190385759 295.31612187463861119
21.009497869018204596614 3642.54875787166656664 21.009497869018204596614 292.99065948927778891
22.009497869018190385759 3653.71498797146387005 22.009497869018190385759 290.92027014530606266
23.009497869018190385759 3664.22791674377822346 23.009497869018190385759 289.09143540434632769
24.009497869018190385759 3674.15201213726686547 24.009497869018190385759 287.39692789296367437
25.009497869018190385759 3683.54230317923338589 25.009497869018190385759 285.84817603210194648
26.009497869018204596614 3692.44691039155441104 26.009497869018204596614 284.45386061342378525
27.009497869018190385759 3700.90726509922387777 27.009497869018190385759 283.12549295777489533
28.009497869018190385759 3708.96018133074676371 28.009497869018190385759 281.88671039283889286
29.009497869018190385759 3716.63772655813636447 29.009497869018190385759 280.73403780850452449
30.009497869018190385759 3723.96868639107697163 30.009497869018190385759 279.63676570076194139
31.009497869018190385759 3730.97847024601196608 31.009497869018190385759 278.59814564487913913
32.009497869018190385759 3737.68995614498680879 32.009497869018190385759 277.60967059010107505
33.009497869018190385759 3744.12368423693533259 33.009497869018190385759 276.67123365531239187
34.009497869018190385759 3750.29810286556903520 34.009497869018190385759 275.76426434171366964
35.009497869018190385759 3756.23007685538095757 35.009497869018190385759 274.88916147219288177
36.009497869018190385759 3761.93475124074984706 36.009497869018190385759 274.04632971829585131
37.009497869018190385759 3767.42601289672393250 37.009497869018190385759 273.23082851095080059
38.009497869018190385759 3772.71656034346915476 38.009497869018190385759 272.43962599353352516
39.009497869018190385759 3777.81794793892822781 39.009497869018190385759 271.66426970186785184
40.009497869018190385759 3782.74084991667905342 40.009497869018190385759 270.89913518473167642
41.009497869018190385759 3787.49509559089847244 41.009497869018190385759 270.17306742363803096
42.009497869018190385759 3792.08970769586721872 42.009497869018190385759 269.44652479708838655
43.009497869018190385759 3796.53305863598370706 43.009497869018190385759 268.75179309863449362
44.009497869018218807469 3800.83291516513827446 44.009497869018218807469 268.05204925200951038
46.009497869018190385759 3809.03037837383408259 46.009497869018190385759 266.69404238987942790
48.009497869018190385759 3816.73387113452599806 48.009497869018190385759 265.38732740114545550
50.009497869018190385759 3823.98844547299904661 50.009497869018190385759 264.09370972704573433
52.009497869018190385759 3830.83350174151746614 52.009497869018190385759 262.83673220151695205
54.009497869018190385759 3837.30381834821537268 54.009497869018190385759 261.62247213642842780
56.009497869018190385759 3843.43005141887942955 56.009497869018190385759 260.43257374921535074
58.009497869018218807469 3849.23961204121724222 58.009497869018218807469 259.20922510747857359
60.009497869018190385759 3854.75679981282519293 60.009497869018190385759 258.06556002026053420
62.009497869018190385759 3860.00357905009059323 62.009497869018190385759 256.94233814163158058
64.009497869018190385759 3864.99956775318923974 64.009497869018190385759 255.83840427394827088
66.009497869018190385759 3869.76255125246507305 66.009497869018190385759 254.73496622572517367
68.009497869018190385759 3874.30868043566806591 68.009497869018190385759 253.63945395116311943
70.009497869018190385759 3878.65242783540497840 70.009497869018190385759 252.59695502621244145
72.009497869018218807469 3882.80724950535295648 72.009497869018218807469 251.55614125450267693
74.009497869018190385759 3886.78525189855736244 74.009497869018190385759 250.54607198407191504
76.009497869018190385759 3890.59751182747822895 76.009497869018190385759 249.55709639216289020
78.009497869018190385759 3894.25435509817361890 78.009497869018190385759 248.58177337608293556
80.009497869018190385759 3897.76509278263301894 80.009497869018190385759 247.63383195708900075
82.009497869018218807469 3901.13833526466578405 82.009497869018218807469 246.71022377880564136
84.009497869018190385759 3904.38216405240973472 84.009497869018190385759 245.81805176489595510
86.009497869018190385759 3907.50388108108609231 86.009497869018190385759 244.92931158534091196
88.009497869018190385759 3910.51025266108445066 88.009497869018190385759 244.07644979719432854
91.009497869018218807469 3914.81751152724882559 91.009497869018218807469 242.82707880056005934
94.009497869018190385759 3918.89905829299323159 94.009497869018190385759 241.62697349826962068
97.009497869018190385759 3922.77243347864396128 97.009497869018190385759 240.46704284049943112
99.504748934509109403734 3925.84698805336893201 99.504748934509109403734 239.72302541923619401
nan nan nan nan

