Time Pressure difference Time.1 Pressure.1 difference.1
(hr) (psi) (hr) (psi)
0.000200000000006639311 0.51933679153402323 0.000200000000006639311 0.41399671925343995
0.000399999999999067768 1.03837945073222215 0.000399999999999067768 1.08364814297011280
0.000600000000005707079 1.55717283362690151 0.000600000000005707079 1.58548432576952192
0.000799999999998135536 2.07573842599503777 0.000799999999998135536 2.09637604306296366
0.001007140329434719206 2.61258815896777374 0.001007140329434719206 2.63269130245760552
0.001267914553963578328 3.28812493382495807 0.001267914553963578328 3.31263382762594905
0.001596209851982166583 4.13809238803828894 0.001596209851982166583 4.16772479328113121
0.002009509145210586212 5.20740141312637661 0.002009509145210586212 5.24283552233118666
0.002529822128138903281 6.55245714348399044 0.002529822128138903281 6.59420070152236626
0.003184857364445292660 8.24406352982009238 0.003184857364445292660 8.29222439345735118
0.004009497869020606231 10.37104169777659202 0.004009497869020606231 10.42493969631781248
0.005047658755842121536 13.04472642021815965 0.005047658755842121536 13.10225240639958955
0.006354625877804664924 16.40453665434924346 0.006354625877804664924 16.46111222442096889
0.008000000000009777068 20.62485014146734841 0.008000000000009777068 20.67176099449027760
0.010071403294347192059 25.92344618580182214 0.010071403294347192059 25.94519898534331759
0.012679145539692626699 32.57181049699043740 0.012679145539692626699 32.54197583459604459
0.015962098519750611558 40.90761369478514098 0.015962098519750611558 40.78233468093270631
0.020095091452091651263 51.34966801928617031 0.020095091452091651263 51.05758939855215317
0.025298221281346400247 64.41561477836054905 0.025298221281346400247 63.84235655710953239
0.031848573644282396344 80.74246717565453935 0.031848573644282396344 79.70684063391536256
0.040094978690191851456 101.10988359070454123 0.040094978690191851456 99.32770896067120248
0.050476587558421215363 126.46560982673558726 0.050476587558421215363 123.49509827884496360
0.063546258777947173257 157.95181618195448436 0.063546258777947173257 153.11186010067174834
0.079999999999998294697 196.92995165270318125 0.079999999999998294697 189.17917313655564726
0.100714032943542974863 245.00010664478952549 0.100714032943542974863 232.76006433414892172
0.126791455396897845276 304.00857505804003722 0.126791455396897845276 284.90923432876371635
0.159620985197506115583 376.03422677288182285 0.159620985197506115583 346.55417491686660014
0.200950914520774404082 463.34044546060221137 0.200950914520774404082 418.30971252250935777
0.252982212813464002465 568.27503653118048987 0.252982212813464002465 500.20771777949335046
0.318485736442795541734 693.09657206846827648 0.318485736442795541734 591.32987515760328279
0.400949786901819038576 839.70431383529898994 0.400949786901819038576 689.35196807483703196
0.504765875584169521062 1009.25469987137046246 0.504765875584169521062 790.05542295985844703
0.635462587779443310865 1201.66825309871273930 0.635462587779443310865 886.94786690069440738
0.799999999999997157829 1415.07659485265594412 0.799999999999997157829 971.25307463614456083
1.007140329435330272645 1645.33462359165400812 1.007140329435330272645 1032.62524800329697428
1.267914553968893187630 1885.81091944585659803 1.267914553968893187630 1060.88396136904225386
1.596209851975103788391 2127.71452835022182626 1.596209851975103788391 1048.70445706561372390
2.009509145207687197399 2361.13307725340246179 2.009509145207687197399 994.53491354402092384
2.529822128134711078928 2576.69397437736097345 2.529822128134711078928 904.39290192717578520
3.184857364427983839050 2767.39579678758809678 3.184857364427983839050 791.22831312340440491
4.009497869018190385759 2929.92297868142668449 4.009497869018190385759 671.51595830710596147
5.009497869018190385759 3060.84724531580923212 5.009497869018190385759 563.42817937508027626
6.009497869018190385759 3150.93777300505735184 6.009497869018190385759 487.61034198749899815
7.009497869018204596614 3217.22907294674450895 7.009497869018204596614 434.86460793400732427
8.009497869018190385759 3268.64585397074324646 8.009497869018190385759 397.74143267771927412
9.009497869018204596614 3310.19155309616189697 9.009497869018204596614 371.72470834867033318
10.009497869018190385759 3344.84082170476995088 10.009497869018190385759 353.16380794561553103
11.009497869018190385759 3374.45852686174976043 11.009497869018190385759 338.10827367153302703
12.009497869018190385759 3400.26653440929430872 12.009497869018190385759 326.62846216727126603
13.009497869018190385759 3423.09993172291615338 13.009497869018190385759 317.68918364921921693
14.009497869018204596614 3443.54966201002434900 14.009497869018204596614 310.58936534535280316
15.009497869018190385759 3462.04717180076977456 15.009497869018190385759 304.84366519064798240
16.009497869018190385759 3478.91622349979979845 16.009497869018190385759 300.11230278208728350
17.009497869018190385759 3494.40577963286114027 17.009497869018190385759 296.24317619447253946
18.009497869018190385759 3508.71134245482880942 18.009497869018190385759 292.85566087742648733
19.009497869018204596614 3521.98874649972958650 19.009497869018204596614 290.05385547363482601
20.009497869018190385759 3534.36486074254844425 20.009497869018190385759 287.48402503864974733
21.009497869018204596614 3545.94450064262082378 21.009497869018204596614 285.22023638269786261
22.009497869018190385759 3556.81459047456064582 22.009497869018190385759 283.20475596048515854
23.009497869018190385759 3567.04870522327246363 23.009497869018190385759 281.42442385696119800
24.009497869018190385759 3576.70960307902396380 24.009497869018190385759 279.77485648238581462
25.009497869018190385759 3585.85085364093902172 25.009497869018190385759 278.26717916385592844
26.009497869018204596614 3594.51930122360363384 26.009497869018204596614 276.90984246923005685
27.009497869018190385759 3602.75527834932245241 27.009497869018190385759 275.61670453299768724
28.009497869018190385759 3610.59462269951018243 28.009497869018190385759 274.41077579583696888
29.009497869018190385759 3618.06855128280358258 29.009497869018190385759 273.28867331124308748
30.009497869018190385759 3625.20508628398101791 30.009497869018190385759 272.22050202383064743
31.009497869018190385759 3632.02896323480717911 31.009497869018190385759 271.20942727364206348
32.009497869018190385759 3638.56245340791247145 32.009497869018190385759 270.24716762593300245
33.009497869018190385759 3644.82555220569111043 33.009497869018190385759 269.33361903418858674
34.009497869018190385759 3650.83621870220758865 34.009497869018190385759 268.45070350893814748
35.009497869018190385759 3656.61087044891974074 35.009497869018190385759 267.59880929586330467
36.009497869018190385759 3662.16425081782790585 36.009497869018190385759 266.77833033419130970
37.009497869018190385759 3667.50987838932269369 37.009497869018190385759 265.98445708398332954
38.009497869018190385759 3672.66011490534310724 38.009497869018190385759 265.21423809666913485
39.009497869018190385759 3677.62620829000206868 39.009497869018190385759 264.45944507638927234
40.009497869018190385759 3682.41854968487950828 40.009497869018190385759 263.71460273833474730
41.009497869018190385759 3687.04670772031340675 41.009497869018190385759 263.00779106450875133
42.009497869018190385759 3691.51946583809876756 42.009497869018190385759 262.30051711916246404
43.009497869018190385759 3695.84497439758752080 43.009497869018190385759 261.62421044235242107
44.009497869018218807469 3700.03079417011895202 44.009497869018218807469 260.94302454485790577
46.009497869018190385759 3708.01085195830319208 46.009497869018190385759 259.62103346534280490
48.009497869018190385759 3715.51003991878951638 48.009497869018190385759 258.34897394432880446
50.009497869018190385759 3722.57221524984652206 50.009497869018190385759 257.08966438327075821
52.009497869018190385759 3729.23573336459685379 52.009497869018190385759 255.86602323517408308
54.009497869018190385759 3735.53445031089904660 54.009497869018190385759 254.68396663515025580
56.009497869018190385759 3741.49820918156137850 56.009497869018190385759 253.52562561546079678
58.009497869018218807469 3747.15369409316599558 58.009497869018218807469 252.33472147748301495
60.009497869018190385759 3752.52456019220471717 60.009497869018190385759 251.22138760162644644
62.009497869018190385759 3757.63218927809111847 62.009497869018190385759 250.12795475878019147
64.009497869018190385759 3762.49567906082666013 64.009497869018190385759 249.05329838836775025
66.009497869018190385759 3767.13234318492686725 66.009497869018190385759 247.97912468775740535
68.009497869018190385759 3771.55790419946470138 68.009497869018190385759 246.91266656088268405
70.009497869018190385759 3775.78645081012882656 70.009497869018190385759 245.89781581334875682
72.009497869018218807469 3779.83108220177882686 72.009497869018218807469 244.88460552700416883
74.009497869018190385759 3783.70358375148180130 74.009497869018190385759 243.90132436514954861
76.009497869018190385759 3787.41473850288139147 76.009497869018190385759 242.93857745508526591
78.009497869018190385759 3790.97459841070212860 78.009497869018190385759 241.98912104005574975
80.009497869018190385759 3794.39222760743086837 80.009497869018190385759 241.06632003311005974
82.009497869018218807469 3797.67600812036062052 82.009497869018218807469 240.16720692351751154
84.009497869018190385759 3800.83380712746293284 84.009497869018190385759 239.29869625787065957
86.009497869018190385759 3803.87273290888879274 86.009497869018190385759 238.43352641069068909
88.009497869018190385759 3806.79937232529937319 88.009497869018190385759 237.60328342191769480
91.009497869018218807469 3810.99239811700954306 91.009497869018218807469 236.38704706949994261
94.009497869018190385759 3814.96569793264870896 94.009497869018190385759 235.21876983294890806
97.009497869018190385759 3818.73634709933503473 97.009497869018190385759 234.08960176672644593
99.504748934509109403734 3821.72936122512055590 99.504748934509109403734 233.36531647676036982
nan nan nan nan

