Time Pressure difference Time.1 Pressure.1 difference.1
(hr) (psi) (hr) (psi)
0.000200000000006639311 0.86889040122038486 0.000200000000006639311 0.69264835721248597
0.000399999999999067768 1.73728869641737171 0.000399999999999067768 1.81302670073845773
0.000600000000005707079 2.60526993318347033 0.000600000000005707079 2.65263723734516166
0.000799999999998135536 3.47287005887631350 0.000799999999998135536 3.50739837973995794
0.001007140329434719206 4.37106095827300667 0.001007140329434719206 4.40469506372714825
0.001267914553963578328 5.50128594697637130 0.001267914553963578328 5.54229121160495364
0.001596209851982166583 6.92334687998713605 0.001596209851982166583 6.97292417337420023
0.002009509145210586212 8.71238313349989824 0.002009509145210586212 8.77166712390025616
0.002529822128138903281 10.96276483621359965 0.002529822128138903281 11.03260501985472786
0.003184857364445292660 13.79295244412207921 0.003184857364445292660 13.87352927366903010
0.004009497869020606231 17.35155053281852844 0.004009497869020606231 17.44172603037787894
0.005047658755842121536 21.82483074151884495 0.005047658755842121536 21.92107614147623806
0.006354625877804664924 27.44605171016123180 0.006354625877804664924 27.54070699085816187
0.008000000000009777068 34.50696081360883483 0.008000000000009777068 34.58544627924334236
0.010071403294347192059 43.37191958009151449 0.010071403294347192059 43.40831368701670101
0.012679145539692626699 54.49514448534937827 0.012679145539692626699 54.44522880018953970
0.015962098519750611558 68.44158445089051668 0.015962098519750611558 68.23198302386818170
0.020095091452091651263 85.91194457072879231 0.020095091452091651263 85.42327457065456997
0.025298221281346400247 107.77227857148783130 0.025298221281346400247 106.81317347054864797
0.031848573644282396344 135.08835854388357234 0.031848573644282396344 133.35567567597377092
0.040094978690191851456 169.16461293060183380 0.040094978690191851456 166.18289768419990082
0.050476587558421215363 211.58669336396147287 0.050476587558421215363 206.61679904345217551
0.063546258777947173257 264.26553861211618823 0.063546258777947173257 256.16791978381615991
0.079999999999998294697 329.47895757279184181 0.079999999999998294697 316.51130890154502140
0.100714032943542974863 409.90402457878252562 0.100714032943542974863 389.42549225136457380
0.126791455396897845276 508.62973134710551903 0.126791455396897845276 476.67506512697008247
0.159620985197506115583 629.13418710078292406 0.159620985197506115583 579.81179264937304652
0.200950914520774404082 775.20420682831525028 0.200950914520774404082 699.86432672035221003
0.252982212813464002465 950.76784958101347911 0.252982212813464002465 836.88598936184484955
0.318485736442795541734 1159.60388019147580962 0.318485736442795541734 989.34036805214384458
0.400949786901819038576 1404.88990968598113795 0.400949786901819038576 1153.33886966366958404
0.504765875584169521062 1688.56074786171598134 0.504765875584169521062 1321.82349610591700184
0.635462587779443310865 2010.48342345361606931 0.635462587779443310865 1483.93200808385404343
0.799999999999997157829 2367.53199523425109874 0.799999999999997157829 1624.98110564124181110
1.007140329435330272645 2752.77138947065168395 1.007140329435330272645 1727.66147262090089498
1.267914553968893187630 3155.10673061133684314 1.267914553968893187630 1774.94047382897451826
1.596209851975103788391 3559.83007627825645613 1.596209851975103788391 1754.56322624439235369
2.009509145207687197399 3950.35726386626947715 2.009509145207687197399 1663.93341304480441067
2.529822128134711078928 4311.00722636212321959 2.529822128134711078928 1513.11889360892882905
3.184857364427983839050 4630.06604462538689404 3.184857364427983839050 1323.78583157184971242
4.009497869018190385759 4901.98652202469475014 4.009497869018190385759 1123.49785332150395334
5.009497869018190385759 5121.03289120145018387 5.009497869018190385759 942.65868472369197661
6.009497869018190385759 5271.76127406615341897 6.009497869018190385759 815.80961063293102598
7.009497869018204596614 5382.67171819936174870 7.009497869018204596614 727.56194019728150124
8.009497869018190385759 5468.69594798951311532 8.009497869018190385759 665.45201236464561134
9.009497869018204596614 5538.20509844934804278 9.009497869018204596614 621.92403127566001331
10.009497869018190385759 5596.17599015990344924 10.009497869018190385759 590.87021713977981108
11.009497869018190385759 5645.72868917254345433 11.009497869018190385759 565.68115018121875437
12.009497869018190385759 5688.90747103093417536 12.009497869018190385759 546.47454247216535350
13.009497869018190385759 5727.10950115180185094 13.009497869018190385759 531.51844187465530922
14.009497869018204596614 5761.32347297830983734 14.009497869018204596614 519.63989971241721832
15.009497869018190385759 5792.27122974359554064 15.009497869018190385759 510.02690137666110104
16.009497869018190385759 5820.49445085543356981 16.009497869018190385759 502.11096811618449465
17.009497869018190385759 5846.40966977036441676 17.009497869018190385759 495.63762170998285228
18.009497869018190385759 5870.34397679942503601 18.009497869018190385759 489.97004800646345757
19.009497869018204596614 5892.55809510531707929 19.009497869018204596614 485.28241204242755202
20.009497869018190385759 5913.26428624234085873 20.009497869018190385759 480.98288804543329888
21.009497869018204596614 5932.63791453669273324 21.009497869018204596614 477.19539548643683702
22.009497869018190385759 5950.82441098628351028 22.009497869018190385759 473.82334170311941079
23.009497869018190385759 5967.94687220047580922 23.009497869018190385759 470.84470914530044183
24.009497869018190385759 5984.11029745913583611 24.009497869018190385759 468.08485603783782381
25.009497869018190385759 5999.40431282234021637 25.009497869018190385759 465.56239590875895829
26.009497869018204596614 6013.90729243179794139 26.009497869018204596614 463.29146720813486127
27.009497869018190385759 6027.68671569982780056 27.009497869018190385759 461.12794796866927527
28.009497869018190385759 6040.80254182418048003 28.009497869018190385759 459.11033642765028162
29.009497869018190385759 6053.30699926161469193 29.009497869018190385759 457.23297265534904454
30.009497869018190385759 6065.24697128281513869 30.009497869018190385759 455.44583992448588106
31.009497869018190385759 6076.66384233515782398 31.009497869018190385759 453.75423409243956030
32.009497869018190385759 6087.59487397093016625 32.009497869018190385759 452.14429968184953168
33.009497869018190385759 6098.07352003644427896 33.009497869018190385759 450.61586261489253502
34.009497869018190385759 6108.12982744407872815 34.009497869018190385759 449.13867702456951747
35.009497869018190385759 6117.79126402030851750 35.009497869018190385759 447.71339247577128617
36.009497869018190385759 6127.08249656059706467 36.009497869018190385759 446.34066805912772224
37.009497869018190385759 6136.02614268982779322 37.009497869018190385759 445.01245704435672224
38.009497869018190385759 6144.64288455317000626 38.009497869018190385759 443.72382143096564278
39.009497869018190385759 6152.95154079288749926 39.009497869018190385759 442.46099464703593185
40.009497869018190385759 6160.96949658816447482 40.009497869018190385759 441.21481611990623151
41.009497869018190385759 6168.71276099360147782 41.009497869018190385759 440.03226581946660190
42.009497869018190385759 6176.19602938297248329 42.009497869018190385759 438.84894210321414221
43.009497869018190385759 6183.43293793442535389 43.009497869018190385759 437.71742900932048315
44.009497869018218807469 6190.43613640000694431 44.009497869018218807469 436.57775260389695404
46.009497869018190385759 6203.78738693023842643 46.009497869018190385759 434.36595983624664541
48.009497869018190385759 6216.33410524874398106 48.009497869018190385759 432.23770640685779654
50.009497869018190385759 6228.14966782185820193 50.009497869018190385759 430.13078464124140510
52.009497869018190385759 6239.29824620615272579 52.009497869018190385759 428.08353887423356809
54.009497869018190385759 6249.83648417400399921 54.009497869018190385759 426.10586725496295912
56.009497869018190385759 6259.81431151530341594 56.009497869018190385759 424.16787362586711652
58.009497869018218807469 6269.27637280971975997 58.009497869018218807469 422.17539939501961044
60.009497869018190385759 6278.26224493695735873 60.009497869018190385759 420.31270617964423764
62.009497869018190385759 6286.80770129219126829 62.009497869018190385759 418.48330892334382725
64.009497869018190385759 6294.94469381330691249 64.009497869018190385759 416.68532614976913919
66.009497869018190385759 6302.70218955939708394 66.009497869018190385759 414.88815091990181827
68.009497869018190385759 6310.10649356448902836 68.009497869018190385759 413.10388443839985939
70.009497869018190385759 6317.18117731694655959 70.009497869018190385759 411.40596107233358225
72.009497869018218807469 6323.94815676066809829 72.009497869018218807469 409.71078232402618369
74.009497869018190385759 6330.42714973805595946 74.009497869018190385759 408.06567730323098431
76.009497869018190385759 6336.63619711058981920 76.009497869018190385759 406.45492766523881301
78.009497869018190385759 6342.59211657175183063 78.009497869018190385759 404.86641404778555398
80.009497869018190385759 6348.31007311243229196 80.009497869018190385759 403.32249697847259995
82.009497869018218807469 6353.80409050906473567 82.009497869018218807469 401.81821158357735158
84.009497869018190385759 6359.08733115556242410 84.009497869018190385759 400.36512643143743162
86.009497869018190385759 6364.17168775140999060 86.009497869018190385759 398.91763072557864689
88.009497869018190385759 6369.06818062117508816 88.009497869018190385759 397.52857034051612573
91.009497869018218807469 6376.08343531115133374 91.009497869018218807469 395.49371336627876872
94.009497869018190385759 6382.73107154116223683 94.009497869018190385759 393.53909568204909419
97.009497869018190385759 6389.03965764696476981 97.009497869018190385759 391.64991064817695587
99.504748934509109403734 6394.04720051125968894 99.504748934509109403734 390.43812564381062202
nan nan nan nan

