Time Pressure difference Time.1 Pressure.1 difference.1
(hr) (psi) (hr) (psi)
0.000200000000006639311 0.26882337125879724 0.000200000000006639311 0.21429637871612353
0.000399999999999067768 0.53749449132453175 0.000399999999999067768 0.56092684323613207
0.000600000000005707079 0.80603657894469427 0.000600000000005707079 0.82069140580697997
0.000799999999998135536 1.07446075576345690 0.000799999999998135536 1.08514336844445070
0.001007140329434719206 1.35234931946569081 0.001007140329434719206 1.36275527354776704
0.001267914553963578328 1.70202620773311120 0.001267914553963578328 1.71471270244099605
0.001596209851982166583 2.14199333547494764 0.001596209851982166583 2.15733190421443144
0.002009509145210586212 2.69549784685868543 0.002009509145210586212 2.71383954120668847
0.002529822128138903281 3.39173663036110407 0.002529822128138903281 3.41334427338417390
0.003184857364445292660 4.26735980790367009 0.003184857364445292660 4.29228922930564849
0.004009497869020606231 5.36834369932987077 0.004009497869020606231 5.39624282357476481
0.005047658755842121536 6.75231832328600223 0.005047658755842121536 6.78209539626132596
0.006354625877804664924 8.49145086435064833 0.006354625877804664924 8.52073597514098147
0.008000000000009777068 10.67600415976595229 0.008000000000009777068 10.70028654041724181
0.010071403294347192059 13.41870691989421260 0.010071403294347192059 13.42996678247739162
0.012679145539692626699 16.86008780533319040 0.012679145539692626699 16.84464454258737476
0.015962098519750611558 21.17493465290961652 0.015962098519750611558 21.11008670182894775
0.020095091452091651263 26.58003649075229546 0.020095091452091651263 26.42884835854542658
0.025298221281346400247 33.34333905995265468 0.025298221281346400247 33.04660443581150275
0.031848573644282396344 41.79457836175707541 0.031848573644282396344 41.25850885377349897
0.040094978690191851456 52.33732756377815321 0.040094978690191851456 51.41482370880896724
0.050476587558421215363 65.46216662505705131 0.050476587558421215363 63.92454606420981378
0.063546258777947173257 81.76031510700529736 0.063546258777947173257 79.25501732775155972
0.079999999999998294697 101.93649740997295794 0.079999999999998294697 97.92447583831325630
0.100714032943542974863 126.81896545876125515 0.100714032943542974863 120.48317432681106709
0.126791455396897845276 157.36341305087651676 0.126791455396897845276 147.47705559004916154
0.159620985197506115583 194.64592187121925804 0.159620985197506115583 179.38621554190370944
0.200950914520774404082 239.83808314707454201 0.200950914520774404082 216.52890568072200494
0.252982212813464002465 294.15518717880013355 0.252982212813464002465 258.92162314547493907
0.318485736442795541734 358.76633458031290047 0.318485736442795541734 306.08902191651577596
0.400949786901819038576 434.65463680897687482 0.400949786901819038576 356.82802193617368403
0.504765875584169521062 522.41869881162290312 0.504765875584169521062 408.95497053851647706
0.635462587779443310865 622.01738101103251211 0.635462587779443310865 459.10923238609660757
0.799999999999997157829 732.48355791251253777 0.799999999999997157829 502.74798574915814697
1.007140329435330272645 851.67160804503885174 1.007140329435330272645 534.51595369401422886
1.267914553968893187630 976.14892144392899809 1.267914553968893187630 549.14346077275752123
1.596209851975103788391 1101.36505233513116764 1.596209851975103788391 542.83900582082242181
2.009509145207687197399 1222.18907684751457055 2.009509145207687197399 514.79932223512628298
2.529822128134711078928 1333.76947712161495474 2.529822128134711078928 468.13927455525288224
3.184857364427983839050 1432.48211917049820840 3.184857364427983839050 409.56209156868527543
4.009497869018190385759 1516.61077261875152544 4.009497869018190385759 347.59560021345384939
5.009497869018190385759 1584.38086576443333797 5.009497869018190385759 291.64631720857516939
6.009497869018190385759 1631.01426391127142779 6.009497869018190385759 252.40086612493936968
7.009497869018204596614 1665.32851051570287382 7.009497869018204596614 225.09818647866086394
8.009497869018190385759 1691.94328659062512088 8.009497869018190385759 205.88218390208865571
9.009497869018204596614 1713.44851225971206077 9.009497869018204596614 192.41519358432773856
10.009497869018190385759 1731.38395097859074667 10.009497869018190385759 182.80754802313114737
11.009497869018190385759 1746.71491053901468149 11.009497869018190385759 175.01437883959161468
12.009497869018190385759 1760.07386316378529045 12.009497869018190385759 169.07210461543047586
13.009497869018190385759 1771.89307363221450942 13.009497869018190385759 164.44488192099007051
14.009497869018204596614 1782.47843081608652938 14.009497869018204596614 160.76981571562333784
15.009497869018190385759 1792.05326360841127098 15.009497869018190385759 157.79567925733863376
16.009497869018190385759 1800.78516056159492109 16.009497869018190385759 155.34659262598427176
17.009497869018190385759 1808.80299170098419381 17.009497869018190385759 153.34382357502343552
18.009497869018190385759 1816.20795450786795300 18.009497869018190385759 151.59035010161659329
19.009497869018204596614 1823.08071333239195155 19.009497869018204596614 150.14005659933343395
20.009497869018190385759 1829.48693913436409275 20.009497869018190385759 148.80983988378827121
21.009497869018204596614 1835.48088735186934173 21.009497869018204596614 147.63803902501828702
22.009497869018190385759 1841.10755244115875939 22.009497869018190385759 146.59476951159726354
23.009497869018190385759 1846.40501888961057375 23.009497869018190385759 145.67321940031803251
24.009497869018190385759 1851.40577210661012941 24.009497869018190385759 144.81935680097859631
25.009497869018190385759 1856.13754122760133214 25.009497869018190385759 144.03894049667542276
26.009497869018204596614 1860.62457419106385714 26.009497869018204596614 143.33634473968155021
27.009497869018190385759 1864.88774824812685438 27.009497869018190385759 142.66698007076644217
28.009497869018190385759 1868.94561399349640851 28.009497869018190385759 142.04275734303740819
29.009497869018190385759 1872.81433023132308335 29.009497869018190385759 141.46192544796716106
30.009497869018190385759 1876.50840203481720891 30.009497869018190385759 140.90900986169438625
31.009497869018190385759 1880.04063321288890620 31.009497869018190385759 140.38564905350384038
32.009497869018190385759 1883.42255200441627494 32.009497869018190385759 139.88755631919289613
33.009497869018190385759 1886.66450859365090764 33.009497869018190385759 139.41467780135084809
34.009497869018190385759 1889.77579910386702977 34.009497869018190385759 138.95765582273560312
35.009497869018190385759 1892.76492172275811754 35.009497869018190385759 138.51669135026256185
36.009497869018190385759 1895.63950803551028912 36.009497869018190385759 138.09198829798683050
37.009497869018190385759 1898.40655564062694793 37.009497869018190385759 137.68105711238237632
38.009497869018190385759 1901.07246332440035985 38.009497869018190385759 137.28237004042327385
39.009497869018190385759 1903.64305332960043415 39.009497869018190385759 136.89166788409252717
40.009497869018190385759 1906.12370440419272200 40.009497869018190385759 136.50611648154185218
41.009497869018190385759 1908.51936954112375133 41.009497869018190385759 136.14025082345565920
42.009497869018190385759 1910.83459529760557416 42.009497869018190385759 135.77414588059212974
43.009497869018190385759 1913.07360052952049045 43.009497869018190385759 135.42407046935872472
44.009497869018218807469 1915.24029890536621679 44.009497869018218807469 135.07146943588000454
46.009497869018190385759 1919.37100189508305448 46.009497869018190385759 134.38716956619509801
48.009497869018190385759 1923.25279309898883184 48.009497869018190385759 133.72871567951636962
50.009497869018190385759 1926.90837423990456045 50.009497869018190385759 133.07686153172505783
52.009497869018190385759 1930.35759916148208504 52.009497869018190385759 132.44347036051479449
54.009497869018190385759 1933.61799270900701231 54.009497869018190385759 131.83160452428452913
56.009497869018190385759 1936.70500250904524364 56.009497869018190385759 131.23201454133626953
58.009497869018218807469 1939.63244101296891131 58.009497869018218807469 130.61556896991507415
60.009497869018190385759 1942.41255279179813442 60.009497869018190385759 130.03927595404701378
62.009497869018190385759 1945.05640566798660984 62.009497869018190385759 129.47328427417627950
64.009497869018190385759 1947.57388515488332814 64.009497869018190385759 128.91701182603011944
66.009497869018190385759 1949.97395328322340902 66.009497869018190385759 128.36098922138725698
68.009497869018190385759 1952.26474848786392613 68.009497869018190385759 127.80896041532868423
70.009497869018190385759 1954.45356348024301951 70.009497869018190385759 127.28364504440970961
72.009497869018218807469 1956.54717876790778064 72.009497869018218807469 126.75917882247172486
74.009497869018190385759 1958.55169479443679847 74.009497869018190385759 126.25020475952455001
76.009497869018190385759 1960.47269316735651046 76.009497869018190385759 125.75185980447521672
78.009497869018190385759 1962.31537706194990278 78.009497869018190385759 125.26039438451604724
80.009497869018190385759 1964.08443832884631775 80.009497869018190385759 124.78272655560024873
82.009497869018218807469 1965.78421574178901210 82.009497869018218807469 124.31732025047458023
84.009497869018190385759 1967.41878157399105476 84.009497869018190385759 123.86775463348111259
86.009497869018190385759 1968.99181527174846451 86.009497869018190385759 123.41991831835430560
88.009497869018190385759 1970.50672637992283853 88.009497869018190385759 122.99016113025545849
91.009497869018218807469 1972.67715479454182059 91.009497869018218807469 122.36060289014179148
94.009497869018190385759 1974.73384684654752164 94.009497869018190385759 121.75586964109375288
97.009497869018190385759 1976.68564120686733077 97.009497869018190385759 121.17138040168693180
99.504748934509109403734 1978.23490973672119253 99.504748934509109403734 120.79646990704102905
nan nan nan nan

