Time Pressure difference Time.1 Pressure.1 difference.1
(hr) (psi) (hr) (psi)
0.000200000000006639311 0.12067922239172012 0.000200000000006639311 0.09620116072395639
0.000399999999999067768 0.24129009672463497 0.000399999999999067768 0.25180926399145248
0.000600000000005707079 0.36184304627548197 0.000600000000005707079 0.36842183852016130
0.000799999999998135536 0.48234306373282132 0.000799999999998135536 0.48713866385277188
0.001007140329434719206 0.60709179976013983 0.001007140329434719206 0.61176320329543732
0.001267914553963578328 0.76406749263560714 0.001267914553963578328 0.76976266827846562
0.001596209851982166583 0.96157595555376907 0.001596209851982166583 0.96846169074641675
0.002009509145210586212 1.21005321298609703 0.002009509145210586212 1.21828710054170197
0.002529822128138903281 1.52260622725188877 0.002529822128138903281 1.53230625275760124
0.003184857364445292660 1.91568783946139964 0.003184857364445292660 1.92687906578736534
0.004009497869020606231 2.40993757400257325 0.004009497869020606231 2.42246194866359410
0.005047658755842121536 3.03122649187761750 0.005047658755842121536 3.04459390853836620
0.006354625877804664924 3.81195162641128249 0.006354625877804664924 3.82509819317474475
0.008000000000009777068 4.79263344633456079 0.008000000000009777068 4.80353420545046461
0.010071403294347192059 6.02387771945715489 0.010071403294347192059 6.02893245653009835
0.012679145539692626699 7.56877006740963587 0.012679145539692626699 7.56183733335965780
0.015962098519750611558 9.50577561817923744 0.015962098519750611558 9.47666430887058198
0.020095091452091651263 11.93221452371233227 0.020095091452091651263 11.86434369036869008
0.025298221281346400247 14.96837202381775533 0.025298221281346400247 14.83516298202064476
0.031848573644282396344 18.76227201998382910 0.031848573644282396344 18.52162162166302650
0.040094978690191851456 23.49508512925025627 0.040094978690191851456 23.08095801169442751
0.050476587558421215363 29.38704074499464980 0.050476587558421215363 28.69677764492391248
0.063546258777947173257 36.70354702946058012 0.063546258777947173257 35.57887774775224443
0.079999999999998294697 45.76096632955442800 0.079999999999998294697 43.95990401410347914
0.100714032943542974863 56.93111452483090318 0.100714032943542974863 54.08687392380063841
0.126791455396897845276 70.64301824265353957 0.126791455396897845276 66.20487015652362572
0.159620985197506115583 87.37974820844208068 0.159620985197506115583 80.52941564574624067
0.200950914520774404082 107.66725094837711652 0.200950914520774404082 97.20337871116002759
0.252982212813464002465 132.05109021958520543 0.252982212813464002465 116.23416518914510220
0.318485736442795541734 161.05609447103827847 0.318485736442795541734 137.40838445168662929
0.400949786901819038576 195.12359856749733922 0.400949786901819038576 160.18595411995411837
0.504765875584169521062 234.52232609190500057 0.504765875584169521062 183.58659668137735821
0.635462587779443310865 279.23380881300215606 0.635462587779443310865 206.10166778942419796
0.799999999999997157829 328.82388822697930664 0.799999999999997157829 225.69182022795024523
1.007140329435330272645 382.32935964870165435 1.007140329435330272645 239.95298230845844500
1.267914553968893187630 438.20926814046345044 1.267914553968893187630 246.51951025402425444
1.596209851975103788391 494.42084392753559996 1.596209851975103788391 243.68933697838781427
2.009509145207687197399 548.66073109253738949 2.009509145207687197399 231.10186292288949517
2.529822128134711078928 598.75100366140600272 2.529822128134711078928 210.15540189012898509
3.184857364427983839050 643.06472842019275049 3.184857364427983839050 183.85914327386799982
4.009497869018190385759 680.83146139231871530 4.009497869018190385759 156.04136851687556486
5.009497869018190385759 711.25456822242369981 5.009497869018190385759 130.92481732273498096
6.009497869018190385759 732.18906584252124503 6.009497869018190385759 113.30689036568485051
7.009497869018204596614 747.59329419435584896 7.009497869018204596614 101.05026947184464348
8.009497869018190385759 759.54110388743231397 8.009497869018190385759 92.42389060620078567
9.009497869018204596614 769.19515256240947565 9.009497869018204596614 86.37833767717499711
10.009497869018190385759 777.24666529998660280 10.009497869018190385759 82.06530793608054353
11.009497869018190385759 784.12898460729763883 11.009497869018190385759 78.56682641405816980
12.009497869018190385759 790.12603764318532740 12.009497869018190385759 75.89924201002298787
13.009497869018190385759 795.43187515997249193 13.009497869018190385759 73.82200581592434219
14.009497869018204596614 800.18381569143195975 14.009497869018204596614 72.17220829339127874
15.009497869018190385759 804.48211524216605994 15.009497869018190385759 70.83706963564736725
16.009497869018190385759 808.40200706325481406 16.009497869018190385759 69.73763446058117665
17.009497869018190385759 812.00134302366166139 17.009497869018190385759 68.83855857083095486
18.009497869018190385759 815.32555233325342670 18.009497869018190385759 68.05139555645327221
19.009497869018204596614 818.41084654240501095 19.009497869018204596614 67.40033500589271398
20.009497869018190385759 821.28670642254735412 20.009497869018190385759 66.80317889519906771
21.009497869018204596614 823.97748813009616242 21.009497869018204596614 66.27713826200510994
22.009497869018190385759 826.50339041476172497 22.009497869018190385759 65.80879745876659115
23.009497869018190385759 828.88151002784377397 23.009497869018190385759 65.39509849240283756
24.009497869018190385759 831.12643020265784344 24.009497869018190385759 65.01178556081080728
25.009497869018190385759 833.25059900310282046 25.009497869018190385759 64.66144387621650935
26.009497869018204596614 835.26490172663864087 26.009497869018204596614 64.34603711224094980
27.009497869018190385759 837.17871051386498493 27.009497869018190385759 64.04554832898183747
28.009497869018190385759 839.00035303113611462 28.009497869018190385759 63.76532450384031847
29.009497869018190385759 840.73708323077983096 29.009497869018190385759 63.50457953546514034
30.009497869018190385759 842.39541267816866821 30.009497869018190385759 63.25636665617859222
31.009497869018190385759 843.98108921321636444 31.009497869018190385759 63.02142140172772145
32.009497869018190385759 845.49928805151807865 32.009497869018190385759 62.79781940025686993
33.009497869018190385759 846.95465556061731149 33.009497869018190385759 62.58553647429062750
34.009497869018190385759 848.35136492278866172 34.009497869018190385759 62.38037180896798617
35.009497869018190385759 849.69323111393168801 35.009497869018190385759 62.18241562163489533
36.009497869018190385759 850.98368007786064027 36.009497869018190385759 61.99175945265663046
37.009497869018190385759 852.22585315136495865 37.009497869018190385759 61.80728570060509242
38.009497869018190385759 853.42262285460697058 38.009497869018190385759 61.62830853207855597
39.009497869018190385759 854.57660288790111736 39.009497869018190385759 61.45291592319943419
40.009497869018190385759 855.69020785946725027 40.009497869018190385759 61.27983557220919408
41.009497869018190385759 856.76566124911119005 41.009497869018190385759 61.11559247492591140
42.009497869018190385759 857.80500408096850151 42.009497869018190385759 60.95124195877973960
43.009497869018190385759 858.81013026867026383 43.009497869018190385759 60.79408736240561240
44.009497869018218807469 859.78279672222311092 44.009497869018218807469 60.63579897276346742
46.009497869018190385759 861.63713707364411221 46.009497869018190385759 60.32860553281203408
48.009497869018190385759 863.37973684010330544 48.009497869018190385759 60.03301477873024794
50.009497869018190385759 865.02078719748021740 50.009497869018190385759 59.74038675572797530
52.009497869018190385759 866.56920086196566899 52.009497869018190385759 59.45604706586576782
54.009497869018190385759 868.03284502416727264 54.009497869018190385759 59.18137045207818403
56.009497869018190385759 869.41865437712556286 56.009497869018190385759 58.91220467025932095
58.009497869018218807469 870.73282955690558538 58.009497869018218807469 58.63547213819717285
60.009497869018190385759 871.98086735235517608 60.009497869018190385759 58.37676474717281394
62.009497869018190385759 873.16773629058218376 62.009497869018190385759 58.12268179490886411
64.009497869018190385759 874.29787414073712171 64.009497869018190385759 57.87296196524571457
66.009497869018190385759 875.37530410547185511 66.009497869018190385759 57.62335429443081836
68.009497869018190385759 876.40367966173448622 68.009497869018190385759 57.37553950533330749
70.009497869018190385759 877.38627462735371410 70.009497869018190385759 57.13971681560187932
72.009497869018218807469 878.32613288342622582 72.009497869018218807469 56.90427532278142309
74.009497869018190385759 879.22599301917443881 74.009497869018190385759 56.67578851433763987
76.009497869018190385759 880.08836070980407840 76.009497869018190385759 56.45207328683871850
78.009497869018190385759 880.91557174607657998 78.009497869018190385759 56.23144639552577928
80.009497869018190385759 881.70973237672660616 80.009497869018190385759 56.01701346923230318
82.009497869018218807469 882.47279034848122592 82.009497869018218807469 55.80808494216352500
84.009497869018190385759 883.20657377160591750 84.009497869018190385759 55.60626755992186787
86.009497869018190385759 883.91273440991801635 86.009497869018190385759 55.40522648966369701
88.009497869018190385759 884.59280286405191873 88.009497869018190385759 55.21230143618279840
91.009497869018218807469 885.56714379321533670 91.009497869018218807469 54.92968241198316548
94.009497869018190385759 886.49042660293923745 94.009497869018190385759 54.65820773361793528
97.009497869018190385759 887.36661911763394528 97.009497869018190385759 54.39582092335790975
99.504748934509109403734 888.06211118211933808 99.504748934509109403734 54.22751745052924832
nan nan nan nan

