Time Pressure difference Time.1 Pressure.1 difference.1
(hr) (psi) (hr) (psi)
0.000200000000006639311 0.56708846560612414 0.000200000000006639311 0.42778454247728442
0.000399999999999067768 0.97976798311669189 0.000399999999999067768 0.76296028011463224
0.000600000000005707079 1.32886875863212528 0.000600000000005707079 0.98665812466640401
0.000799999999998135536 1.63836044177127516 0.000799999999998135536 1.18029633815533885
0.001007140329434719206 1.92938593660448188 0.001007140329434719206 1.35868915614411767
0.001267914553963578328 2.26405346206356928 0.001267914553963578328 1.55961143134811375
0.001596209851982166583 2.64760421272940061 0.001596209851982166583 1.78446962585984670
0.002009509145224797066 3.08581865884992013 0.002009509145224797066 2.03577215104339082
0.002529822128138903281 3.58509264465791855 0.002529822128138903281 2.31638514717455646
0.003184857364431081805 4.15252581705168300 0.003184857364431081805 2.62958637873445467
0.004009497869020606231 4.79602245557073736 0.004009497869020606231 2.97911951992134405
0.005047658755842121536 5.52440477643919081 0.005047658755842121536 3.36924926276200587
0.006354625877790454069 6.34753896566384235 0.006354625877790454069 3.80481843546551035
0.008000000000009777068 7.27647453972528435 0.008000000000009777068 4.29130896926699190
0.010071403294347192059 8.32359810587154492 0.010071403294347192059 4.83490879734005041
0.012679145539706837553 9.50280303839909379 0.012679145539706837553 5.44258534712044550
0.015962098519750611558 10.82967638825823720 0.015962098519750611558 6.12216153522494544
0.020095091452091651263 12.32170257633973698 0.020095091452091651263 6.88238607899363330
0.025298221281360611101 13.99848130259965728 0.025298221281360611101 7.73300416107234145
0.031848573644296607199 15.88196183921432691 0.031848573644296607199 8.68488158570166391
0.040094978690177640601 17.99671537593092552 0.040094978690177640601 9.75026760575333107
0.050476587558421215363 20.37028646383158659 0.050476587558421215363 10.94316606849731421
0.063546258777961384112 23.03363075913405567 0.063546258777961384112 12.27945303156572443
0.079999999999998294697 26.02151288701335474 0.079999999999998294697 13.77605841659858932
0.100714032943542974863 29.37255681004322128 0.100714032943542974863 15.44869465753352955
0.126791455396897845276 33.12858406096506059 0.126791455396897845276 17.30838054120221159
0.159620985197506115583 37.33304635717530573 0.159620985197506115583 19.35808507492742692
0.200950914520760193227 42.02879764185775713 0.200950914520760193227 21.59120567948269453
0.252982212813478213320 47.25580024396417400 0.252982212813478213320 23.99328896222577256
0.318485736442795541734 53.04965543496797409 0.318485736442795541734 26.54471864659762304
0.400949786901833249431 59.44050375666279962 0.400949786901833249431 29.22891774281385224
0.504765875584155310207 66.45526308542693528 0.504765875584155310207 32.03447116332819888
0.635462587779443310865 74.11742341517748400 0.635462587779443310865 34.95839919799279016
0.799999999999997157829 82.45066362509197688 0.799999999999997157829 38.01114691294604597
1.007140329435344483500 91.48076702641326108 1.007140329435344483500 41.22281646530883847
1.267914553968893187630 101.24182295099259932 1.267914553968893187630 44.60492859319476366
1.596209851975103788391 111.76043907902388241 1.596209851975103788391 48.22590669457759560
2.009509145207672986544 123.09568689537648822 2.009509145207672986544 52.11400318933815612
2.529822128134711078928 135.27900655410152808 2.529822128134711078928 56.33520312423961940
3.184857364427998049905 148.38793508916680253 3.184857364427998049905 60.98169686601492145
4.009497869018190385759 162.48062727139063099 4.009497869018190385759 66.07283566784464313
5.009497869018204596614 177.10778210136075472 5.009497869018204596614 71.44817414674309930
6.009497869018204596614 189.82687711260234664 6.009497869018204596614 76.16277621373099294
7.009497869018204596614 201.13067148249055549 7.009497869018204596614 80.35672121988476135
8.009497869018204596614 211.32862383901769476 8.009497869018204596614 84.11019025035786001
9.009497869018204596614 220.63005111164844152 9.009497869018204596614 87.49263057720784786
10.009497869018190385759 229.18485531968767077 10.009497869018190385759 90.55053901904641123
11.009497869018190385759 237.10514280518123087 11.009497869018190385759 93.30582905250223291
12.009497869018190385759 244.47768636837815848 12.009497869018190385759 95.81794848817685306
13.009497869018190385759 251.37111570431846985 13.009497869018190385759 98.11357700213613953
14.009497869018190385759 257.84180744000906316 14.009497869018190385759 100.21200626474053763
15.009497869018190385759 263.93506403074906075 15.009497869018190385759 102.13677091540479580
16.009497869018204596614 269.68851356158580757 16.009497869018204596614 103.90783844312024087
17.009497869018204596614 275.13522277020769025 17.009497869018204596614 105.54231433423936437
18.009497869018204596614 280.30385499723394105 18.009497869018204596614 107.06422179450947851
19.009497869018204596614 285.21875792484195244 19.009497869018204596614 108.47302455468327764
20.009497869018204596614 289.90196758266097277 20.009497869018204596614 109.78274629114370953
21.009497869018204596614 294.37146981682019486 21.009497869018204596614 110.99667765598593405
22.009497869018190385759 298.64262173825215996 22.009497869018190385759 112.12595284534815221
23.009497869018190385759 302.72963329154760004 23.009497869018190385759 113.17093380659619584
24.009497869018190385759 306.64546661432558494 24.009497869018190385759 114.15051104150617789
25.009497869018190385759 310.40232998964768285 25.009497869018190385759 115.06687538731056009
26.009497869018190385759 314.01099577670822782 26.009497869018190385759 115.92051750217500228
27.009497869018204596614 317.48129055263103737 27.009497869018204596614 116.72706155979776099
28.009497869018190385759 320.82172463506327631 28.009497869018190385759 117.48386943112306824
29.009497869018190385759 324.03992039789324053 29.009497869018190385759 118.18282313034822550
30.009497869018190385759 327.14295312192149368 30.009497869018190385759 118.84892316353408148
31.009497869018190385759 330.13730257462276541 31.009497869018190385759 119.47143249768942042
32.009497869018190385759 333.02893359249696914 32.009497869018190385759 120.05300590940775862
33.009497869018218807469 335.82351368528514968 33.009497869018218807469 120.58481695080321572
34.009497869018190385759 338.52620367966989079 34.009497869018190385759 121.09437123039008100
35.009497869018218807469 341.14169463268325444 35.009497869018218807469 121.55895650486445447
36.009497869018190385759 343.67433506526884912 36.009497869018190385759 122.00508589800578818
37.009497869018218807469 346.12815806343456870 37.009497869018218807469 122.42286817037788182
38.009497869018190385759 348.50697702930312971 38.009497869018190385759 122.81369309892252772
39.009497869018190385759 350.81429819031728812 39.009497869018190385759 123.16993494830697387
40.009497869018190385759 353.05340116053287147 40.009497869018190385759 123.48251351767868300
41.009497869018190385759 355.22741176179101785 41.009497869018190385759 123.81193231409793043
42.009497869018190385759 357.33920978819554648 42.009497869018190385759 124.08292691499731575
43.009497869018190385759 359.39157010195100383 43.009497869018190385759 124.36649260686928642
44.009497869018218807469 361.38710127183435361 44.009497869018218807469 124.58280061636170899
46.009497869018218807469 365.21713930383998559 46.009497869018218807469 124.96455109137923500
48.009497869018218807469 368.84582192490722719 48.009497869018218807469 125.26789059624425704
50.009497869018218807469 372.28629066365670042 50.009497869018218807469 125.40217694189918518
52.009497869018190385759 375.55168359385146459 52.009497869018190385759 125.44088408994487338
54.009497869018190385759 378.65454397948866472 54.009497869018190385759 125.40991076258451642
56.009497869018190385759 381.60500272322923365 56.009497869018190385759 125.28607097946741078
58.009497869018190385759 384.41135749410318567 58.009497869018190385759 124.95943984937449045
60.009497869018190385759 387.08215396506994921 60.009497869018190385759 124.72272476603625080
62.009497869018190385759 389.62457606834658463 62.009497869018190385759 124.43029230366589388
64.009497869018190385759 392.04620517479639830 64.009497869018190385759 124.08283046146610218
66.009497869018218807469 394.35738482951211381 66.009497869018218807469 123.65948333440574913
68.009497869018218807469 396.56716383025030837 68.009497869018218807469 123.17962503608680436
70.009497869018218807469 398.68079666252975812 70.009497869018218807469 122.67924780344593216
72.009497869018218807469 400.70382906837448900 72.009497869018218807469 121.98040715459234207
74.009497869018190385759 402.64142985778181583 74.009497869018190385759 121.26395242414238851
76.009497869018190385759 404.49795746390122986 76.009497869018190385759 120.49265067971521148
78.009497869018190385759 406.27878571855376322 78.009497869018190385759 119.73437123589494036
80.009497869018190385759 407.98738078172806354 80.009497869018190385759 118.83781587223795384
82.009497869018190385759 409.62404313740779571 82.009497869018190385759 117.96725753104895773
84.009497869018190385759 411.18955103462053557 84.009497869018190385759 117.12539993102103608
86.009497869018190385759 412.68549402041833218 86.009497869018190385759 116.04984794704554929
88.009497869018218807469 414.11655829802634798 88.009497869018218807469 115.07239468189433751
91.009497869018190385759 416.14573273658538710 91.009497869018190385759 113.46773422715810398
94.009497869018218807469 418.04304325572655898 94.009497869018218807469 111.95666595537295507
97.009497869018190385759 419.82608625319323892 97.009497869018190385759 110.52368300461330364
99.504748934509109403734 421.23382170829518145 99.504748934509109403734 110.59163481327291834
nan nan nan nan

