Time Pressure difference Time.1 Pressure.1 difference.1
(hr) (psi) (hr) (psi)
0.000200000000006639311 0.10069795183660149 0.000200000000006639311 0.07596174118755518
0.000399999999999067768 0.17397749232913218 0.000399999999999067768 0.13547892824465432
0.000600000000005707079 0.23596734966364841 0.000600000000005707079 0.17520097540805304
0.000799999999998135536 0.29092381676312362 0.000799999999998135536 0.20958533107431249
0.001007140329434719206 0.34260124107930046 0.001007140329434719206 0.24126256043680600
0.001267914553963578328 0.40202818485240949 0.001267914553963578328 0.27694034762256226
0.001596209851982166583 0.47013532749400566 0.001596209851982166583 0.31686843823679522
0.002009509145224797066 0.54794910764624749 0.002009509145224797066 0.36149225111985445
0.002529822128138903281 0.63660523596729390 0.002529822128138903281 0.41132072706837919
0.003184857364431081805 0.73736439742039217 0.003184857364431081805 0.46693589902761345
0.004009497869020606231 0.85163015566209355 0.004009497869020606231 0.52900253157481802
0.005047658755842121536 0.98096907245181886 0.005047658755842121536 0.59827790647175805
0.006354625877790454069 1.12713308736086915 0.006354625877790454069 0.67562196517611861
0.008000000000009777068 1.29208426406336829 0.008000000000009777068 0.76200813472965279
0.010071403294347192059 1.47802209356597536 0.010071403294347192059 0.85853520700430797
0.012679145539706837553 1.68741362364096048 0.012679145539706837553 0.96644038874101379
0.015962098519750611558 1.92302664838230419 0.015962098519750611558 1.08711279597452282
0.020095091452091651263 2.18796587804163556 0.020095091452091651263 1.22210593926055178
0.025298221281360611101 2.48571163317190180 0.025298221281360611101 1.37315027159228498
0.031848573644296607199 2.82016144808478719 0.031848573644296607199 1.54217523484422059
0.040094978690177640601 3.19567843124007078 0.040094978690177640601 1.73135592999358190
0.050476587558421215363 3.61715367114766462 0.050476587558421215363 1.94317902150886912
0.063546258777961384112 4.09008396657520645 0.063546258777961384112 2.18046362242755842
0.079999999999998294697 4.62064247526405403 0.079999999999998294697 2.44621598051750677
0.100714032943542974863 5.21568765785814215 0.100714032943542974863 2.74322615414146798
0.126791455396897845276 5.88264576783491666 0.126791455396897845276 3.07345075030693504
0.159620985197506115583 6.62923253071337282 0.159620985197506115583 3.43741697592169215
0.200950914520760193227 7.46305752518969445 0.200950914520760193227 3.83395241037543144
0.252982212813478213320 8.39121686575064807 0.252982212813478213320 4.26049056338588539
0.318485736442795541734 9.42003227349898609 0.318485736442795541734 4.71354817089116640
0.400949786901833249431 10.55485580725787997 0.400949786901833249431 5.19018165526601116
0.504765875584155310207 11.80046727685150998 0.504765875584155310207 5.68836403834799853
0.635462587779443310865 13.16103780269506807 0.635462587779443310865 6.20756621272769227
0.799999999999997157829 14.64077204557708001 0.799999999999997157829 6.74964290977546533
1.007140329435344483500 16.24424835048459670 1.007140329435344483500 7.31993937234455938
1.267914553968893187630 17.97751996326037016 1.267914553968893187630 7.92050133897850905
1.596209851975103788391 19.84531161216311901 1.596209851975103788391 8.56347875885022702
2.009509145207672986544 21.85811262628180884 2.009509145207672986544 9.25388841679836460
2.529822128134711078928 24.02150583670961836 2.529822128134711078928 10.00344728374348335
3.184857364427998049905 26.34925950181466092 3.184857364427998049905 10.82852561172227546
4.009497869018190385759 28.85170016968618256 4.009497869018190385759 11.73255960457054492
5.009497869018204596614 31.44904541986779734 5.009497869018204596614 12.68705896063662308
6.009497869018204596614 33.70757630971443319 6.009497869018204596614 13.52423129028868054
7.009497869018204596614 35.71479213240485961 7.009497869018204596614 14.26895049698888229
8.009497869018204596614 37.52564348543305783 8.009497869018204596614 14.93545434352149037
9.009497869018204596614 39.17729879552636874 9.009497869018204596614 15.53607458847615774
10.009497869018190385759 40.69637617826229814 10.009497869018190385759 16.07906767627926925
11.009497869018190385759 42.10278236727516799 11.009497869018190385759 16.56832478502376205
12.009497869018190385759 43.41192561681481266 12.009497869018190385759 17.01440206799402333
13.009497869018190385759 44.63599250824346854 13.009497869018190385759 17.42203703776248958
14.009497869018190385759 45.78499384448758747 14.009497869018190385759 17.79465531803803913
15.009497869018190385759 46.86697398676852089 15.009497869018190385759 18.13643595694103894
16.009497869018204596614 47.88861455766476638 16.009497869018204596614 18.45092458335779995
17.009497869018204596614 48.85578722087799974 17.009497869018204596614 18.74115862009857736
18.009497869018204596614 49.77358172848079931 18.009497869018204596614 19.01140387005308341
19.009497869018204596614 50.64632150067287597 19.009497869018204596614 19.26156510784095133
20.009497869018204596614 51.47791947729493245 20.009497869018204596614 19.49413251898813826
21.009497869018204596614 52.27156940672507801 21.009497869018204596614 19.70969042489469913
22.009497869018190385759 53.02999825258683586 22.009497869018190385759 19.91021592580948507
23.009497869018190385759 53.75572927606918938 23.009497869018190385759 20.09577329276007163
24.009497869018190385759 54.45106416516061643 24.009497869018190385759 20.26971691391231545
25.009497869018190385759 55.11817074582528875 25.009497869018190385759 20.43243581643832485
26.009497869018190385759 55.75896186689212186 26.009497869018190385759 20.58401712655443916
27.009497869018204596614 56.37518243457934375 27.009497869018204596614 20.72723523024446379
28.009497869018190385759 56.96834362678693253 28.009497869018190385759 20.86162167468540574
29.009497869018190385759 57.53979894915860882 29.009497869018190385759 20.98573494837959075
30.009497869018190385759 58.09080475996736226 30.009497869018190385759 21.10401439352474284
31.009497869018190385759 58.62251167212927072 31.009497869018190385759 21.21455343416915085
32.009497869018190385759 59.13597886221909050 32.009497869018190385759 21.31782347924063004
33.009497869018218807469 59.63221271047118677 33.009497869018218807469 21.41225721556318717
34.009497869018190385759 60.11212962536195192 34.009497869018190385759 21.50273881661132336
35.009497869018218807469 60.57656259832693024 35.009497869018218807469 21.58523526721891983
36.009497869018190385759 61.02628379663651970 36.009497869018190385759 21.66445450525336369
37.009497869018218807469 61.46200937575006407 37.009497869018218807469 21.73864014240354692
38.009497869018190385759 61.88441648183886912 38.009497869018190385759 21.80803896149091514
39.009497869018190385759 62.29412771603765009 39.009497869018190385759 21.87129685997974704
40.009497869018190385759 62.69172543972079836 40.009497869018190385759 21.92680146575602862
41.009497869018190385759 63.07776470536475699 41.009497869018190385759 21.98529639222299537
42.009497869018190385759 63.45275687827771804 42.009497869018190385759 22.03341692883130065
43.009497869018190385759 63.81719469100063691 43.009497869018190385759 22.08376971523847132
44.009497869018218807469 64.17154134733507931 44.009497869018218807469 22.12217954869974079
46.009497869018218807469 64.85164155862580060 46.009497869018218807469 22.18996701622621970
48.009497869018218807469 65.49598707077791460 48.009497869018218807469 22.24383104045458381
50.009497869018218807469 66.10691142625680072 50.009497869018218807469 22.26767627940265726
52.009497869018190385759 66.68674755404839516 52.009497869018190385759 22.27454951129862337
54.009497869018190385759 67.23772276271293435 54.009497869018190385759 22.26904957466454249
56.009497869018190385759 67.76163599758275780 56.009497869018190385759 22.24705933280262471
58.009497869018190385759 68.25996067652300781 58.009497869018190385759 22.18905941250575253
60.009497869018190385759 68.73421425547971353 60.009497869018190385759 22.14702589303447411
62.009497869018190385759 69.18567238596808977 62.009497869018190385759 22.09509863336123558
64.009497869018190385759 69.61568129272085059 64.009497869018190385759 22.03339980156874844
66.009497869018218807469 70.02607768000682142 66.009497869018218807469 21.95822601265149032
68.009497869018218807469 70.41846834368929819 68.009497869018218807469 21.87301752977242586
70.009497869018218807469 70.79378632325294518 70.009497869018218807469 21.78416549780815359
72.009497869018218807469 71.15301637662724943 72.009497869018218807469 21.66007229847901172
74.009497869018190385759 71.49707632988649664 74.009497869018190385759 21.53285136503463093
76.009497869018190385759 71.82674011041237350 76.009497869018190385759 21.39589124219241967
78.009497869018190385759 72.14296195002356171 78.009497869018190385759 21.26124349048602014
80.009497869018190385759 72.44635733507321618 80.009497869018190385759 21.10204207077122618
82.009497869018190385759 72.73697962253035598 82.009497869018190385759 20.94745694476570463
84.009497869018190385759 73.01496700614757174 84.009497869018190385759 20.79796821205046342
86.009497869018190385759 73.28060174194342835 86.009497869018190385759 20.60698234573706245
88.009497869018218807469 73.53471595946263051 88.009497869018218807469 20.43341587809338833
91.009497869018190385759 73.89503665416002320 91.009497869018190385759 20.14847617117760947
94.009497869018218807469 74.23194226036265775 94.009497869018218807469 19.88015563693538112
97.009497869018190385759 74.54855737206233357 97.009497869018190385759 19.62570072044535152
99.504748934509109403734 74.79852908838887515 99.504748934509109403734 19.63776692945967639
nan nan nan nan

