Time Pressure difference Time.1 Pressure.1 difference.1
(hr) (psi) (hr) (psi)
0.000200000000006639311 0.10599784403852788 0.000200000000006639311 0.07995972756584756
0.000399999999999067768 0.18313420245171810 0.000399999999999067768 0.14260939815226770
0.000600000000005707079 0.24838668385647203 0.000600000000005707079 0.18442207937689795
0.000799999999998135536 0.30623559659276173 0.000799999999998135536 0.22061613797296051
0.001007140329434719206 0.36063288534663207 0.001007140329434719206 0.25396058993347992
0.001267914553963578328 0.42318756300253629 0.001267914553963578328 0.29151615539217079
0.001596209851982166583 0.49487929209895332 0.001596209851982166583 0.33354572445978448
0.002009509145224797066 0.57678853436447097 0.002009509145224797066 0.38051815907353104
0.002529822128138903281 0.67011077470241465 0.002529822128138903281 0.43296918638776755
0.003184857364431081805 0.77617304991620240 0.003184857364431081805 0.49151147266064577
0.004009497869020606231 0.89645279543378265 0.004009497869020606231 0.55684477007875588
0.005047658755842121536 1.03259902363349365 0.005047658755842121536 0.62976621733869276
0.006354625877790454069 1.18645588143249392 0.006354625877790454069 0.71118101597486161
0.008000000000009777068 1.36008869901407170 0.008000000000009777068 0.80211382603121339
0.010071403294347192059 1.55581273006944754 0.010071403294347192059 0.90372127053085061
0.012679145539706837553 1.77622486699048476 0.012679145539706837553 1.01730567235896174
0.015962098519750611558 2.02423857724453038 0.015962098519750611558 1.14432925892055049
0.020095091452091651263 2.30312197688593256 0.020095091452091651263 1.28642730448479115
0.025298221281360611101 2.61653856123358075 0.025298221281360611101 1.44542133851819488
0.031848573644296607199 2.96859099798398596 0.031848573644296607199 1.62334235246760072
0.040094978690177640601 3.36387203288428571 0.040094978690177640601 1.82247992630903366
0.050476587558421215363 3.80753018015543621 0.050476587558421215363 2.04545160158828310
0.063546258777961384112 4.30535154376337559 0.063546258777961384112 2.29522486571321949
0.079999999999998294697 4.86383418448847760 0.079999999999998294697 2.57496419001842769
0.100714032943542974863 5.49019753458751758 0.100714032943542974863 2.88760647804365078
0.126791455396897845276 6.19225870298412318 0.126791455396897845276 3.23521131611256330
0.159620985197506115583 6.97813950601407651 0.159620985197506115583 3.61833365886493930
0.200950914520760193227 7.85585002651546827 0.200950914520760193227 4.03573937934255955
0.252982212813478213320 8.83285985868489298 0.252982212813478213320 4.48472690882724656
0.318485736442795541734 9.91582344578840669 0.318485736442795541734 4.96162965356964936
0.400949786901833249431 11.11037453395566388 0.400949786901833249431 5.46334911080632768
0.504765875584155310207 12.42154450194895787 0.504765875584155310207 5.98775161931368238
0.635462587779443310865 13.85372400283691441 0.635462587779443310865 6.53428022392388641
0.799999999999997157829 15.41133899534429297 0.799999999999997157829 7.10488727344785875
1.007140329435344483500 17.09920878998378413 1.007140329435344483500 7.70519933931006218
1.267914553968893187630 18.92370522448459624 1.267914553968893187630 8.33736983050369318
1.596209851975103788391 20.88980169701380873 1.596209851975103788391 9.01418816721076510
2.009509145207672986544 23.00853960661243036 2.009509145207672986544 9.74093517557722421
2.529822128134711078928 25.28579561758906991 2.529822128134711078928 10.52994450920366809
3.184857364427998049905 27.73606263348911938 3.184857364427998049905 11.39844801233923732
4.009497869018190385759 30.37021070493282693 4.009497869018190385759 12.35006274165320406
5.009497869018204596614 33.10425833670294793 5.009497869018204596614 13.35479890593328811
6.009497869018204596614 35.48165927338361314 6.009497869018204596614 14.23603293714597839
7.009497869018204596614 37.59451803411038640 7.009497869018204596614 15.01994789156724508
8.009497869018204596614 39.50067735308742556 8.009497869018204596614 15.72153088791735520
9.009497869018204596614 41.23926189002774834 9.009497869018204596614 16.35376272471174630
10.009497869018190385759 42.83829071396031196 10.009497869018190385759 16.92533439608343926
11.009497869018190385759 44.31871828134228508 11.009497869018190385759 17.44034187897238297
12.009497869018190385759 45.69676380717348962 12.009497869018190385759 17.90989691367791892
13.009497869018190385759 46.98525527183523565 13.009497869018190385759 18.33898635553946477
14.009497869018190385759 48.19473036261850751 14.009497869018190385759 18.73121612425056881
15.009497869018190385759 49.33365682817738929 15.009497869018190385759 19.09098521783267088
16.009497869018204596614 50.40906795543659058 16.009497869018204596614 19.42202587721873641
17.009497869018204596614 51.42714444302946930 17.009497869018204596614 19.72753538957745079
18.009497869018204596614 52.39324392471663572 18.009497869018204596614 20.01200407374008705
19.009497869018204596614 53.31191736912933976 19.009497869018204596614 20.27533169246416378
20.009497869018204596614 54.18728366031045596 20.009497869018204596614 20.52013949367172430
21.009497869018204596614 55.02270463865798433 21.009497869018204596614 20.74704255252073537
22.009497869018190385759 55.82105079219666521 22.009497869018190385759 20.95812202716787809
23.009497869018190385759 56.58497818533599144 23.009497869018190385759 21.15344557132639380
24.009497869018190385759 57.31690964753749284 24.009497869018190385759 21.33654411990769972
25.009497869018190385759 58.01912710086872238 25.009497869018190385759 21.50782717519823706
26.009497869018190385759 58.69364407041275200 26.009497869018190385759 21.66738644900467392
27.009497869018204596614 59.34229729955720956 27.009497869018204596614 21.81814234762574856
28.009497869018190385759 59.96667750188098722 28.009497869018190385759 21.95960176282674325
29.009497869018190385759 60.56820942016695852 29.009497869018190385759 22.09024731408378273
30.009497869018190385759 61.14821553680775423 30.009497869018190385759 22.21475199318394189
31.009497869018190385759 61.70790702329396993 31.009497869018190385759 22.33110887807278999
32.009497869018190385759 62.24839880233588474 32.009497869018190385759 22.43981418867434741
33.009497869018218807469 62.77075022154861728 33.009497869018218807469 22.53921812164546168
34.009497869018190385759 63.27592592143362538 34.009497869018190385759 22.63446191222244508
35.009497869018218807469 63.76480273508096985 35.009497869018218807469 22.72130028128307444
36.009497869018190385759 64.23819347014371317 36.009497869018190385759 22.80468895289827813
37.009497869018218807469 64.69685197447374492 37.009497869018218807469 22.88277909726689430
38.009497869018190385759 65.14149103351459758 38.009497869018190385759 22.95583048577990937
39.009497869018190385759 65.57276601688174367 39.009497869018190385759 23.02241774734709878
40.009497869018190385759 65.99128993654821329 40.009497869018190385759 23.08084364816424028
41.009497869018190385759 66.39764705827869307 41.009497869018190385759 23.14241725497157276
42.009497869018190385759 66.79237566134496262 42.009497869018190385759 23.19307045140136836
43.009497869018190385759 67.17599441157960882 43.009497869018190385759 23.24607338446154969
44.009497869018218807469 67.54899089193165196 44.009497869018218807469 23.28650478810499180
46.009497869018218807469 68.26488585118504204 46.009497869018218807469 23.35786001708022752
48.009497869018218807469 68.94314428502937631 48.009497869018218807469 23.41455898995219798
50.009497869018218807469 69.58622255395452783 50.009497869018218807469 23.43965924147648394
52.009497869018190385759 70.19657637268250028 52.009497869018190385759 23.44689422241960131
54.009497869018190385759 70.77655027653993614 54.009497869018190385759 23.44110481543635771
56.009497869018190385759 71.32803789219238411 56.009497869018190385759 23.41795719242381679
58.009497869018190385759 71.85259018581369617 58.009497869018190385759 23.35690464474289740
60.009497869018190385759 72.35180447945232629 60.009497869018190385759 23.31265883477313139
62.009497869018190385759 72.82702356417692613 62.009497869018190385759 23.25799856143287769
64.009497869018190385759 73.27966451865353292 64.009497869018190385759 23.19305242270394629
66.009497869018218807469 73.71166071579665413 66.009497869018218807469 23.11392211858051482
68.009497869018218807469 74.12470351967294846 68.009497869018218807469 23.02422897870781782
70.009497869018218807469 74.51977507710836335 70.009497869018218807469 22.93070052400858572
72.009497869018218807469 74.89791197539709344 72.009497869018218807469 22.80007610366211779
74.009497869018190385759 75.26008034724893037 74.009497869018190385759 22.66615933161540042
76.009497869018190385759 75.60709485306566080 76.009497869018190385759 22.52199078125518028
78.009497869018190385759 75.93995994739321986 78.009497869018190385759 22.38025630577475411
80.009497869018190385759 76.25932351060339442 80.009497869018190385759 22.21267586396971083
82.009497869018190385759 76.56524170792668826 82.009497869018190385759 22.04995467870073966
84.009497869018190385759 76.85786000647112814 84.009497869018190385759 21.89259811794785548
86.009497869018190385759 77.13747551783519896 86.009497869018190385759 21.69156036393374976
88.009497869018218807469 77.40496416785539679 88.009497869018218807469 21.50885881904567043
91.009497869018190385759 77.78424910964211847 91.009497869018190385759 21.20892228545011449
94.009497869018218807469 78.13888658985543145 94.009497869018218807469 20.92647961782672184
97.009497869018190385759 78.47216565480246686 97.009497869018190385759 20.65863233731089466
99.504748934509109403734 78.73529377725142808 99.504748934509109403734 20.67133360995755353
nan nan nan nan

