Time Pressure difference Time.1 Pressure.1 difference.1
(hr) (psi) (hr) (psi)
0.000200000000006639311 0.22259547248090855 0.000200000000006639311 0.16791542788827987
0.000399999999999067768 0.38458182514860800 0.000399999999999067768 0.29947973611976220
0.000600000000005707079 0.52161203609859130 0.000600000000005707079 0.38728636669148570
0.000799999999998135536 0.64309475284479967 0.000799999999998135536 0.46329388974321711
0.001007140329434719206 0.75732905922792737 0.001007140329434719206 0.53331723886030791
0.001267914553963578328 0.88869388230532620 0.001267914553963578328 0.61218392632355867
0.001596209851982166583 1.03924651340780194 0.001596209851982166583 0.70044602136554746
0.002009509145224797066 1.21125592216538913 0.002009509145224797066 0.79908813405441514
0.002529822128138903281 1.40723262687507056 0.002529822128138903281 0.90923529141431181
0.003184857364431081805 1.62996340482402502 0.003184857364431081805 1.03217409258735615
0.004009497869020606231 1.88255087041094371 0.004009497869020606231 1.16937401716538747
0.005047658755842121536 2.16845794963033667 0.005047658755842121536 1.32250905641125471
0.006354625877790454069 2.49155735100823739 0.006354625877790454069 1.49348013354720943
0.008000000000009777068 2.85618626792955066 0.008000000000009777068 1.68443903466554823
0.010071403294347192059 3.26720673314583987 0.010071403294347192059 1.89781466811478627
0.012679145539706837553 3.73007222068001765 0.012679145539706837553 2.13634191195381984
0.015962098519750611558 4.25090101221351357 0.015962098519750611558 2.40309144373315586
0.020095091452091651263 4.83655615146045736 0.020095091452091651263 2.70149733941806147
0.025298221281360611101 5.49473097859052029 0.025298221281360611101 3.03538481088820866
0.031848573644296607199 6.23404109576637122 0.031848573644296607199 3.40901894018196172
0.040094978690177640601 7.06413126905699951 0.040094978690177640601 3.82720784524897040
0.050476587558421215363 7.99581337832641648 0.050476587558421215363 4.29544836333539415
0.063546258777961384112 9.04123824190308767 0.063546258777961384112 4.81997221799776110
0.079999999999998294697 10.21405178742580233 0.079999999999998294697 5.40742479903869810
0.100714032943542974863 11.52941482263378781 0.100714032943542974863 6.06397360389166629
0.126791455396897845276 13.00374327626665760 0.126791455396897845276 6.79394376383638310
0.159620985197506115583 14.65409296262956040 0.159620985197506115583 7.59850068361637287
0.200950914520760193227 16.49728505568248238 0.200950914520760193227 8.47505269661937533
0.252982212813478213320 18.54900570323827225 0.252982212813478213320 9.41792650853721902
0.318485736442795541734 20.82322923615565458 0.318485736442795541734 10.41942227249626285
0.400949786901833249431 23.33178652130689201 0.400949786901833249431 11.47303313269328839
0.504765875584155310207 26.08524345409281153 0.504765875584155310207 12.57427840055873247
0.635462587779443310865 29.09282040595751795 0.635462587779443310865 13.72198847024016111
0.799999999999997157829 32.36381189022301896 0.799999999999997157829 14.92026327424050258
1.007140329435344483500 35.90833845896595022 1.007140329435344483500 16.18091861255113173
1.267914553968893187630 39.73978097141765886 1.267914553968893187630 17.50847664405775816
1.596209851975103788391 43.86858356372900403 1.596209851975103788391 18.92979515114260636
2.009509145207672986544 48.31793317388610376 2.009509145207672986544 20.45596386871217121
2.529822128134711078928 53.10017079693705710 2.529822128134711078928 22.11288346932770210
3.184857364427998049905 58.24573153032714856 3.184857364427998049905 23.93674082591239838
4.009497869018190385759 63.77744248035892838 4.009497869018190385759 25.93513175747172994
5.009497869018204596614 69.51894250707618994 5.009497869018204596614 28.04507770245990628
6.009497869018204596614 74.51148447410558617 6.009497869018204596614 29.89566916800655960
7.009497869018204596614 78.94848787163179793 7.009497869018204596614 31.54189057229121929
8.009497869018204596614 82.95142244148358657 8.009497869018204596614 33.01521486462645072
9.009497869018204596614 86.60244996905827009 9.009497869018204596614 34.34290172189466972
10.009497869018190385759 89.96041049931665157 10.009497869018190385759 35.54320223177523275
11.009497869018190385759 93.06930839081879014 11.009497869018190385759 36.62471794584200069
12.009497869018190385759 95.96320399506433318 12.009497869018190385759 37.61078351872362902
13.009497869018190385759 98.66903607085399130 13.009497869018190385759 38.51187134663287992
14.009497869018190385759 101.20893376149888354 14.009497869018190385759 39.33555386092619699
15.009497869018190385759 103.60067933917252958 15.009497869018190385759 40.09106895744861276
16.009497869018204596614 105.85904270641685798 16.009497869018204596614 40.78625434215934575
17.009497869018204596614 107.99700333036189193 17.009497869018204596614 41.42782431811264843
18.009497869018204596614 110.02581224190493003 18.009497869018204596614 42.02520855485418849
19.009497869018204596614 111.95502647517160710 19.009497869018204596614 42.57819655417473825
20.009497869018204596614 113.79329568665197314 20.009497869018204596614 43.09229293671062067
21.009497869018204596614 115.54767974118176710 21.009497869018204596614 43.56878936029354321
22.009497869018190385759 117.22420666361298913 22.009497869018190385759 44.01205625705254931
23.009497869018190385759 118.82845418920558700 23.009497869018190385759 44.42223569978542486
24.009497869018190385759 120.36551025982872432 24.009497869018190385759 44.80674265180616800
25.009497869018190385759 121.84016691182432623 25.009497869018190385759 45.16643706791629853
26.009497869018190385759 123.25665254786677849 26.009497869018190385759 45.50151154290981026
27.009497869018204596614 124.61882432907012230 27.009497869018204596614 45.81809893001407374
28.009497869018190385759 125.93002275395006961 28.009497869018190385759 46.11516370193615444
29.009497869018190385759 127.19323978235061645 29.009497869018190385759 46.38951935957594230
30.009497869018190385759 128.41125262729627821 30.009497869018190385759 46.65097918568627477
31.009497869018190385759 129.58660474891732406 31.009497869018190385759 46.89532864395285827
32.009497869018190385759 130.72163748490535795 32.009497869018190385759 47.12360979621612955
33.009497869018218807469 131.81857546525210978 33.009497869018218807469 47.33235805545547237
34.009497869018190385759 132.87944443501061187 34.009497869018190385759 47.53237001566713360
35.009497869018218807469 133.90608574367004735 35.009497869018218807469 47.71473059069445810
36.009497869018190385759 134.90020628730181329 36.009497869018190385759 47.88984680108638514
37.009497869018218807469 135.86338914639489417 37.009497869018218807469 48.05383610426047625
38.009497869018190385759 136.79713117038068049 38.009497869018190385759 48.20724402013780718
39.009497869018190385759 137.70280863545164607 39.009497869018190385759 48.34707726942890815
40.009497869018190385759 138.58170886675122802 40.009497869018190385759 48.46977166114491098
41.009497869018190385759 139.43505882238525828 41.009497869018190385759 48.59907623544030741
42.009497869018190385759 140.26398888882440019 42.009497869018190385759 48.70544794794287924
43.009497869018190385759 141.06958826431718990 43.009497869018190385759 48.81675410736925613
44.009497869018218807469 141.85288087305647764 44.009497869018218807469 48.90166005502048563
46.009497869018218807469 143.35626028748859540 46.009497869018218807469 49.05150603586848490
48.009497869018218807469 144.78060299856170445 48.009497869018218807469 49.17057387889961007
50.009497869018218807469 146.13106736330448143 50.009497869018218807469 49.22328440710062125
52.009497869018190385759 147.41281038263326764 52.009497869018190385759 49.23847786708116558
54.009497869018190385759 148.63075558073384741 54.009497869018190385759 49.22632011241636008
56.009497869018190385759 149.78887957360399241 56.009497869018190385759 49.17771010409001065
58.009497869018190385759 150.89043939020874063 58.009497869018190385759 49.04949975396008455
60.009497869018190385759 151.93878940684987811 60.009497869018190385759 48.95658355302357023
62.009497869018190385759 152.93674948477158182 62.009497869018190385759 48.84179697900904671
64.009497869018190385759 153.88729548917240209 64.009497869018190385759 48.70541008767828117
66.009497869018218807469 154.79448750317297367 66.009497869018218807469 48.53923644901907863
68.009497869018218807469 155.66187739131319745 68.009497869018218807469 48.35088085528641244
70.009497869018218807469 156.49152766192756303 70.009497869018218807469 48.15447110041802858
72.009497869018218807469 157.28561514833390333 72.009497869018218807469 47.88015981769044771
74.009497869018190385759 158.04616872922278503 74.009497869018190385759 47.59893459639233981
76.009497869018190385759 158.77489919143786778 76.009497869018190385759 47.29618064063587468
78.009497869018190385759 159.47391588952578445 78.009497869018190385759 46.99853824212699038
80.009497869018190385759 160.14457937226711692 80.009497869018190385759 46.64661931433639097
82.009497869018190385759 160.78700758664604109 82.009497869018190385759 46.30490482527154938
84.009497869018190385759 161.40150601358936910 84.009497869018190385759 45.97445604769050220
86.009497869018190385759 161.98869858745391070 86.009497869018190385759 45.55227676426087413
88.009497869018218807469 162.55042475249632616 88.009497869018218807469 45.16860351999591217
91.009497869018190385759 163.34692313024845589 91.009497869018190385759 44.53873679944523900
94.009497869018218807469 164.09166183869638189 94.009497869018218807469 43.94560719743611088
97.009497869018190385759 164.79154787508517188 97.009497869018190385759 43.38312790835288979
99.504748934509109403734 165.34411693222801887 99.504748934509109403734 43.40980058091086136
nan nan nan nan

