Time Pressure difference Time.1 Pressure.1 difference.1
(hr) (psi) (hr) (psi)
0.000200000000006639311 0.23319525688476134 0.000200000000006639311 0.17591140064486463
0.000399999999999067768 0.40289524539377980 0.000399999999999067768 0.31374067593498894
0.000600000000005707079 0.54645070448423838 0.000600000000005707079 0.40572857462917550
0.000799999999998135536 0.67371831250407566 0.000799999999998135536 0.48535550354051321
0.001007140329434719206 0.79339234776259060 0.001007140329434719206 0.55871329785365598
0.001267914553963578328 0.93101263860557981 0.001267914553963578328 0.64133554186277575
0.001596209851982166583 1.08873444261769747 0.001596209851982166583 0.73380059381152585
0.002009509145224797066 1.26893477560183632 0.002009509145224797066 0.83713994996176821
0.002529822128138903281 1.47424370434531227 0.002529822128138903281 0.95253221005308852
0.003184857364431081805 1.70758070981564503 0.003184857364431081805 1.08132523985342055
0.004009497869020606231 1.97219614995432191 0.004009497869020606231 1.22505849417326296
0.005047658755842121536 2.27171785199368603 0.005047658755842121536 1.38548567814512413
0.006354625877790454069 2.61020293915148693 0.006354625877790454069 1.56459823514469565
0.008000000000009777068 2.99219513783095792 0.008000000000009777068 1.76465041726866945
0.010071403294347192059 3.42278800615278511 0.010071403294347192059 1.98818679516787111
0.012679145539706837553 3.90769470737906666 0.012679145539706837553 2.23807247918971619
0.015962098519750611558 4.45332486993796728 0.015962098519750611558 2.51752436962521076
0.020095091452091651263 5.06686834914905049 0.020095091452091651263 2.83014006986654065
0.025298221281360611101 5.75638483471387818 0.025298221281360611101 3.17992694474002802
0.031848573644296607199 6.53090019556476964 0.031848573644296607199 3.57135317542872199
0.040094978690177640601 7.40051847234542848 0.040094978690177640601 4.00945583787987392
0.050476587558421215363 8.37656639634196054 0.050476587558421215363 4.49999352349422299
0.063546258777961384112 9.47177339627942594 0.063546258777961384112 5.04949470456908323
0.079999999999998294697 10.70043520587464947 0.079999999999998294697 5.66492121804054172
0.100714032943542974863 12.07843457609253868 0.100714032943542974863 6.35273425169603101
0.126791455396897845276 13.62296914656507063 0.126791455396897845276 7.11746489544763872
0.159620985197506115583 15.35190691323096956 0.159620985197506115583 7.96033404950286716
0.200950914520760193227 17.28287005833403001 0.200950914520760193227 8.87862663455362977
0.252982212813478213320 19.43229168910676563 0.252982212813478213320 9.86639919941994492
0.318485736442795541734 21.81481158073449222 0.318485736442795541734 10.91558523785322876
0.400949786901833249431 24.44282397470245982 0.400949786901833249431 12.01936804377391965
0.504765875584155310207 27.32739790428770732 0.504765875584155310207 13.17305356249010018
0.635462587779443310865 30.47819280624120708 0.635462587779443310865 14.37541649263254939
0.799999999999997157829 33.90494578975744844 0.799999999999997157829 15.63075200158528943
1.007140329435344483500 37.61825933796433219 1.007140329435344483500 16.95143854648213733
1.267914553968893187630 41.63215149386611813 1.267914553968893187630 18.34221362710812642
1.596209851975103788391 45.95756373343038348 1.596209851975103788391 19.83121396786368607
2.009509145207672986544 50.61878713454734680 2.009509145207672986544 21.43005738626989398
2.529822128134711078928 55.62875035869596019 2.529822128134711078928 23.16587792024806802
3.184857364427998049905 61.01933779367606547 3.184857364427998049905 25.07658562714632211
4.009497869018190385759 66.81446355085222422 4.009497869018190385759 27.17013803163705177
5.009497869018204596614 72.82936834074648402 5.009497869018204596614 29.38055759305323278
6.009497869018204596614 78.05965040144394607 6.009497869018204596614 31.31927246172115176
7.009497869018204596614 82.70793967504285149 7.009497869018204596614 33.04388536144794131
8.009497869018204596614 86.90149017679232202 8.009497869018204596614 34.58736795341818748
9.009497869018204596614 90.72637615806104350 9.009497869018204596614 35.97827799436584684
10.009497869018190385759 94.24423957071267921 10.009497869018190385759 37.23573567138357276
11.009497869018190385759 97.50118021895302434 11.009497869018190385759 38.36875213373923543
12.009497869018190385759 100.53288037578165870 12.009497869018190385759 39.40177321009141309
13.009497869018190385759 103.36756159803749711 13.009497869018190385759 40.34576998218682320
14.009497869018190385759 106.02840679776072363 14.009497869018190385759 41.20867547335124925
15.009497869018190385759 108.53404502199025217 15.009497869018190385759 42.00016747923188376
16.009497869018204596614 110.89994950196050638 16.009497869018204596614 42.72845692988121868
17.009497869018204596614 113.13971777466484525 17.009497869018204596614 43.40057785707039528
18.009497869018204596614 115.26513663437658863 18.009497869018204596614 44.02640896222819578
19.009497869018204596614 117.28621821208454890 19.009497869018204596614 44.60572972342115605
20.009497869018204596614 119.21202405268300595 20.009497869018204596614 45.14430688607779274
21.009497869018204596614 121.04995020504755132 21.009497869018204596614 45.64349361554561568
22.009497869018190385759 122.80631174283267626 22.009497869018190385759 46.10786845976932824
23.009497869018190385759 124.48695200773919112 23.009497869018190385759 46.53758025691805500
24.009497869018190385759 126.09720122458249136 24.009497869018190385759 46.94039706379693655
25.009497869018190385759 127.64207962191117929 25.009497869018190385759 47.31721978543612295
26.009497869018190385759 129.12601695490806719 26.009497869018190385759 47.66825018781028689
27.009497869018204596614 130.55305405902586813 27.009497869018204596614 47.99991316477665038
28.009497869018190385759 131.92669050413815057 28.009497869018190385759 48.31112387821882947
29.009497869018190385759 133.25006072436730165 29.009497869018190385759 48.59854409098431915
30.009497869018190385759 134.52607418097704794 30.009497869018190385759 48.87245438500466577
31.009497869018190385759 135.75739545124673668 31.009497869018190385759 49.12843953176013656
32.009497869018190385759 136.94647736513894642 32.009497869018190385759 49.36759121508356429
33.009497869018218807469 138.09565048740697080 33.009497869018218807469 49.58627986762001427
34.009497869018190385759 139.20703702715400141 34.009497869018190385759 49.79581620688938415
35.009497869018218807469 140.28256601717814078 35.009497869018218807469 49.98686061882276022
36.009497869018190385759 141.32402563431617182 36.009497869018190385759 50.17031569637621402
37.009497869018218807469 142.33307434384224166 37.009497869018218807469 50.34211401398717101
38.009497869018190385759 143.31128027373213740 38.009497869018190385759 50.50282706871579563
39.009497869018190385759 144.26008523713983323 39.009497869018190385759 50.64931904416361874
40.009497869018190385759 145.18083786040602945 40.009497869018190385759 50.77785602596132719
41.009497869018190385759 146.07482352821310201 41.009497869018190385759 50.91331796093746220
42.009497869018190385759 146.94322645495893198 42.009497869018190385759 51.02475499308301465
43.009497869018190385759 147.78718770547516215 43.009497869018190385759 51.14136144581540577
44.009497869018218807469 148.60777996224962294 44.009497869018218807469 51.23031053383098055
46.009497869018218807469 150.18274887260710670 46.009497869018218807469 51.38729203757650765
48.009497869018218807469 151.67491742706462787 48.009497869018218807469 51.51202977789483128
50.009497869018218807469 153.08968961869993564 50.009497869018218807469 51.56725033124826041
52.009497869018190385759 154.43246801990153472 52.009497869018190385759 51.58316728932312856
54.009497869018190385759 155.70841060838785097 54.009497869018190385759 51.57043059395999052
56.009497869018190385759 156.92168336282321661 56.009497869018190385759 51.51950582333239481
58.009497869018190385759 158.07569840879008893 58.009497869018190385759 51.38519021843437429
60.009497869018190385759 159.17396985479513205 60.009497869018190385759 51.28784943650089190
62.009497869018190385759 160.21945184118925454 62.009497869018190385759 51.16759683515233803
64.009497869018190385759 161.21526194103776675 64.009497869018190385759 51.02471532994867687
66.009497869018218807469 162.16565357475263909 66.009497869018218807469 50.85062866087712763
68.009497869018218807469 163.07434774328049798 68.009497869018218807469 50.65330375315719635
70.009497869018218807469 163.94350516963839937 70.009497869018218807469 50.44754115281888573
72.009497869018218807469 164.77540634587361978 72.009497869018218807469 50.16016742805665984
74.009497869018190385759 165.57217676394768091 74.009497869018190385759 49.86555052955387879
76.009497869018190385759 166.33560867674444239 76.009497869018190385759 49.54837971876138880
78.009497869018190385759 167.06791188426510075 78.009497869018190385759 49.23656387270446544
80.009497869018190385759 167.77051172332747342 80.009497869018190385759 48.86788690073336028
82.009497869018190385759 168.44353175743870565 82.009497869018190385759 48.50990029314163365
84.009497869018190385759 169.08729201423648192 84.009497869018190385759 48.16371585948528633
86.009497869018190385759 169.70244613923745192 86.009497869018190385759 47.72143280065424875
88.009497869018218807469 170.29092116928188716 88.009497869018218807469 47.31948940190047637
91.009497869018190385759 171.12534804121267484 91.009497869018190385759 46.65962902799024903
94.009497869018218807469 171.90555049768195772 94.009497869018218807469 46.03825515921878520
97.009497869018190385759 172.63876444056543846 97.009497869018190385759 45.44899114208397606
99.504748934509109403734 173.21764630995315315 99.504748934509109403734 45.47693394190661564
nan nan nan nan

