Time Pressure difference Time.1 Pressure.1 difference.1
(hr) (psi) (hr) (psi)
0.000200000000006639311 0.25969471789439325 0.000200000000006639311 0.19590133253632652
0.000399999999999067768 0.44867879600670929 0.000399999999999067768 0.34939302547305590
0.000600000000005707079 0.60854737544835635 0.000600000000005707079 0.45183409447339995
0.000799999999998135536 0.75027721165226613 0.000799999999998135536 0.54050953803375323
0.001007140329434719206 0.88355056909924867 0.001007140329434719206 0.62220344533702587
0.001267914553963578328 1.03680952935621384 0.001267914553963578328 0.71421458071081845
0.001596209851982166583 1.21245426564243575 0.001596209851982166583 0.81718702492647188
0.002009509145224797066 1.41313190919295417 0.002009509145224797066 0.93226948973015111
0.002529822128138903281 1.64177139802091565 0.002529822128138903281 1.06077450665003048
0.003184857364431081805 1.90162397229469593 0.003184857364431081805 1.20420310801858199
0.004009497869020606231 2.19630934881276740 0.004009497869020606231 1.36426968669295179
0.005047658755842121536 2.52986760790205922 0.005047658755842121536 1.54292723247979713
0.006354625877790454069 2.90681690950961036 0.006354625877790454069 1.74239348913841097
0.008000000000009777068 3.33221731258447562 0.008000000000009777068 1.96517887377647260
0.010071403294347192059 3.81174118867014666 0.010071403294347192059 2.21411711280058343
0.012679145539706837553 4.35175092412668718 0.012679145539706837553 2.49239889727945663
0.015962098519750611558 4.95938451424910021 0.015962098519750611558 2.80360668435534865
0.020095091452091651263 5.64264884337053374 0.020095091452091651263 3.15174689598773838
0.025298221281360611101 6.41051947502227382 0.025298221281360611101 3.54128227936957707
0.031848573644296607199 7.27304794506076568 0.031848573644296607199 3.97718876354562223
0.040094978690177640601 8.24148648056649868 0.040094978690177640601 4.46507581945713294
0.050476587558421215363 9.32844894138081848 0.050476587558421215363 5.01135642389129377
0.063546258777961384112 10.54811128222027072 0.063546258777961384112 5.62330092099738810
0.079999999999998294697 11.91639375199676998 0.079999999999998294697 6.30866226554514853
0.100714032943542974863 13.45098395973941763 0.100714032943542974863 7.07463587120694370
0.126791455396897845276 15.17103382231110054 0.126791455396897845276 7.92626772447577910
0.159620985197506115583 17.09644178973448803 0.159620985197506115583 8.86491746421910065
0.200950914520760193227 19.24683256496289729 0.200950914520760193227 9.88756147938927121
0.252982212813478213320 21.64050665377798666 0.252982212813478213320 10.98758092662675523
0.318485736442795541734 24.29376744218159700 0.318485736442795541734 12.15599265124564177
0.400949786901833249431 27.22041760819137579 0.400949786901833249431 13.38520532147550313
0.504765875584155310207 30.43278402977495034 0.504765875584155310207 14.66999146731852122
0.635462587779443310865 33.94162380695043879 0.635462587779443310865 16.00898654861352099
0.799999999999997157829 37.75778053859352212 0.799999999999997157829 17.40697381994725390
1.007140329435344483500 41.89306153546027645 1.007140329435344483500 18.87773838130965487
1.267914553968893187630 46.36307779998726630 1.267914553968893187630 20.42655608473404882
1.596209851975103788391 51.18001415768383566 1.596209851975103788391 22.08476100966637645
2.009509145207672986544 56.37092203620045439 2.009509145207672986544 23.86529118016419915
2.529822128134711078928 61.95019926309322500 2.529822128134711078928 25.79836404754898282
3.184857364427998049905 67.95335345204834709 3.184857364427998049905 27.92619763023112966
4.009497869018190385759 74.40701622708542118 4.009497869018190385759 30.25765371705035278
5.009497869018204596614 81.10543292492222633 5.009497869018204596614 32.71925731953655969
6.009497869018204596614 86.93006521978986711 6.009497869018204596614 34.87828069600764991
7.009497869018204596614 92.10656918357044276 7.009497869018204596614 36.79887233433974814
8.009497869018204596614 96.77665951506418196 8.009497869018204596614 38.51775067539752939
9.009497869018204596614 101.03619163056798413 9.009497869018204596614 40.06671867554378252
10.009497869018190385759 104.95381224920276964 10.009497869018190385759 41.46706927040442991
11.009497869018190385759 108.58085978928859561 11.009497869018190385759 42.72883760348233295
12.009497869018190385759 111.95707132757505065 12.009497869018190385759 43.87924743851089460
13.009497869018190385759 115.11387541599631845 13.009497869018190385759 44.93051657107168495
14.009497869018190385759 118.07708938841534518 14.009497869018190385759 45.89147950441389412
15.009497869018190385759 120.86745922903460837 15.009497869018190385759 46.77291378369005059
16.009497869018204596614 123.50221649081964870 16.009497869018204596614 47.58396339918590456
17.009497869018204596614 125.99650388542218593 17.009497869018204596614 48.33246170446474821
18.009497869018204596614 128.36344761555577065 18.009497869018204596614 49.02940998066321754
19.009497869018204596614 130.61419755436688206 19.009497869018204596614 49.67456264653719700
20.009497869018204596614 132.75884496776063770 20.009497869018204596614 50.27434175949571937
21.009497869018204596614 134.80562636471202609 21.009497869018204596614 50.83025425367580397
22.009497869018190385759 136.76157444088181592 22.009497869018190385759 51.34739896656130043
23.009497869018190385759 138.63319655407318010 23.009497869018190385759 51.82594164974965878
24.009497869018190385759 140.42642863646685214 24.009497869018190385759 52.27453309377386148
25.009497869018190385759 142.14686139712836166 25.009497869018190385759 52.69417657923568044
26.009497869018190385759 143.79942797251123920 26.009497869018190385759 53.08509680006145004
27.009497869018204596614 145.38862838391517585 27.009497869018204596614 53.45444875168308840
28.009497869018190385759 146.91835987960840271 28.009497869018190385759 53.80102431892551351
29.009497869018190385759 148.39211307940905726 29.009497869018190385759 54.12110591950526128
30.009497869018190385759 149.81312806517897229 30.009497869018190385759 54.42614238330065035
31.009497869018190385759 151.18437220707022561 31.009497869018190385759 54.71121675127833583
32.009497869018190385759 152.50857706572293182 32.009497869018190385759 54.97754476225215114
33.009497869018218807469 153.78833804279412334 33.009497869018218807469 55.22108439803137969
34.009497869018190385759 155.02601850751238999 34.009497869018190385759 55.45443168494499275
35.009497869018218807469 156.22376670094840279 35.009497869018218807469 55.66718568914353682
36.009497869018190385759 157.38357400185208235 36.009497869018190385759 55.87148793460078622
37.009497869018218807469 158.50728733746066723 37.009497869018218807469 56.06280878830389014
38.009497869018190385759 159.59665303211076548 38.009497869018190385759 56.24178469016077742
39.009497869018190385759 160.65327674136025848 39.009497869018190385759 56.40492348100039521
40.009497869018190385759 161.67866034454311830 40.009497869018190385759 56.54806693800238548
41.009497869018190385759 162.67423529278281080 41.009497869018190385759 56.69892227468035628
42.009497869018190385759 163.64132037029514777 42.009497869018190385759 56.82302260593335319
43.009497869018190385759 164.58118630837006435 43.009497869018190385759 56.95287979193079053
44.009497869018218807469 165.49502768523257146 44.009497869018218807469 57.05193673085722850
46.009497869018218807469 167.24897033540335656 46.009497869018218807469 57.22675704184656098
48.009497869018218807469 168.91070349832199327 48.009497869018218807469 57.36566952538287723
50.009497869018218807469 170.48624525718858536 50.009497869018218807469 57.42716514161738672
52.009497869018190385759 171.98161211307214558 52.009497869018190385759 57.44489084492803244
54.009497869018190385759 173.40254817752284566 54.009497869018190385759 57.43070679781907728
56.009497869018190385759 174.75369283587133395 56.009497869018190385759 57.37399512143834812
58.009497869018190385759 176.03884595524351653 58.009497869018190385759 57.22441637962009509
60.009497869018190385759 177.26192097465821007 60.009497869018190385759 57.11601414519417119
62.009497869018190385759 178.42620773223347896 62.009497869018190385759 56.98209647551055212
64.009497869018190385759 179.53517807070113577 64.009497869018190385759 56.82297843562465545
66.009497869018218807469 180.59356875370181683 66.009497869018218807469 56.62910919052225722
68.009497869018218807469 181.60552362319873509 68.009497869018218807469 56.40936099783414903
70.009497869018218807469 182.57344893891550441 70.009497869018218807469 56.18021628382103216
72.009497869018218807469 183.49988433972288249 72.009497869018218807469 55.86018645397219018
74.009497869018190385759 184.38719685075992061 74.009497869018190385759 55.53209036245772978
76.009497869018190385759 185.23738239001085049 76.009497869018190385759 55.17887741407518831
78.009497869018190385759 186.05290187111339151 78.009497869018190385759 54.83162794914815663
80.009497869018190385759 186.83534260097829360 80.009497869018190385759 54.42105586672579420
82.009497869018190385759 187.58484218442038127 82.009497869018190385759 54.02238896281681235
84.009497869018190385759 188.30175701585426395 84.009497869018190385759 53.63686538897224665
86.009497869018190385759 188.98681501869623389 86.009497869018190385759 53.14432289163768530
88.009497869018218807469 189.64216221124573281 88.009497869018218807469 52.69670410666189753
91.009497869018190385759 190.57141031862323644 91.009497869018190385759 51.96185959935277765
94.009497869018218807469 191.44027214514579782 94.009497869018218807469 51.26987506367546388
97.009497869018190385759 192.25680585426604807 97.009497869018190385759 50.61364922641169528
99.504748934509109403734 192.90146975426600306 99.504748934509109403734 50.64476734439600136
nan nan nan nan

