Time Pressure difference Time.1 Pressure.1 difference.1
(hr) (psi) (hr) (psi)
0.000200000000006639311 0.32329342431751001 0.000200000000006639311 0.24387716907583507
0.000399999999999067768 0.55855931747774012 0.000399999999999067768 0.43495866436441649
0.000600000000005707079 0.75757938576223960 0.000600000000005707079 0.56248734209953877
0.000799999999998135536 0.93401856960792318 0.000799999999998135536 0.67287922081752960
0.001007140329434719206 1.09993030030722783 0.001007140329434719206 0.77457979929711385
0.001267914553963578328 1.29072206715773574 0.001267914553963578328 0.88912427394612092
0.001596209851982166583 1.50938184090180760 0.001596209851982166583 1.01731445960234268
0.002009509145224797066 1.75920502981163662 0.002009509145224797066 1.16058038517426976
0.002529822128138903281 2.04383786284236457 0.002529822128138903281 1.32055601848269077
0.003184857364431081805 2.36732780224441708 0.003184857364431081805 1.49910999161496949
0.004009497869020606231 2.73418102607303704 0.004009497869020606231 1.69837654874020538
0.005047658755842121536 3.14942702208215586 0.005047658755842121536 1.92078696288301298
0.006354625877790454069 3.61869043836910675 0.006354625877790454069 2.16910209872332826
0.008000000000009777068 4.14827053199291917 0.008000000000009777068 2.44644716939520102
0.010071403294347192059 4.74522882671181545 0.010071403294347192059 2.75634987511909424
0.012679145539706837553 5.41748584432097768 0.012679145539706837553 3.10278230069483385
0.015962098519750611558 6.17392766059581799 0.015962098519750611558 3.49020423970767890
0.020095091452091651263 7.02452202950209337 0.020095091452091651263 3.92360327867861391
0.025298221281360611101 7.98044261176242209 0.025298221281360611101 4.40853508248049408
0.031848573644296607199 9.05420254385115797 0.031848573644296607199 4.95119417502618209
0.040094978690177640601 10.25980970029706896 0.040094978690177640601 5.55856377524255318
0.050476587558421215363 11.61296704947408109 0.050476587558421215363 6.23862738484426327
0.063546258777961384112 13.13132220847829501 0.063546258777961384112 7.00043584042531997
0.079999999999998294697 14.83469426268985458 0.079999999999998294697 7.85364077955620488
0.100714032943542974863 16.74510248049192995 0.100714032943542974863 8.80719975803313382
0.126791455396897845276 18.88638904410157693 0.126791455396897845276 9.86739451414331725
0.159620985197506115583 21.28332549334293233 0.159620985197506115583 11.03591765953806458
0.200950914520760193227 23.96034258087217950 0.200950914520760193227 12.30900510699480677
0.252982212813478213320 26.94022256898892564 0.252982212813478213320 13.67841707192310352
0.318485736442795541734 30.24326150965464066 0.318485736442795541734 15.13297044338743014
0.400949786901833249431 33.88664232856477554 0.400949786901833249431 16.66321478795930133
0.504765875584155310207 37.88571073094431796 0.504765875584155310207 18.26264243890673100
0.635462587779443310865 42.25385820865258779 0.635462587779443310865 19.92955468296785426
0.799999999999997157829 47.00458393580009897 0.799999999999997157829 21.66990618401596791
1.007140329435344483500 52.15258680945054692 1.007140329435344483500 23.50085798489568845
1.267914553968893187630 57.71730093467802192 1.267914553968893187630 25.42897798303626544
1.596209851975103788391 63.71389517589211948 1.596209851975103788391 27.49327390999283693
2.009509145207672986544 70.17604580016791260 2.009509145207672986544 29.70985228551053581
2.529822128134711078928 77.12167663364667192 2.529822128134711078928 32.11633075307118190
3.184857364427998049905 84.59499103214182014 3.184857364427998049905 34.76526643763467916
4.009497869018190385759 92.62914265004512515 4.009497869018190385759 37.66769136204226953
5.009497869018204596614 100.96798792694399083 5.009497869018204596614 40.73213666309653291
6.009497869018204596614 108.21906078382002647 6.009497869018204596614 43.41990045829523126
7.009497869018204596614 114.66328000403666465 7.009497869018204596614 45.81084106928009447
8.009497869018204596614 120.47706592691663730 8.009497869018204596614 47.95066920814793576
9.009497869018204596614 125.77974876458462461 9.009497869018204596614 49.87897631037082391
10.009497869018190385759 130.65678667757896392 10.009497869018190385759 51.62226990805449844
11.009497869018190385759 135.17209075809395813 11.009497869018190385759 53.19304273086576273
12.009497869018190385759 139.37512961187914584 12.009497869018190385759 54.62518558671764879
13.009497869018190385759 143.30502857909746695 13.009497869018190385759 55.93390838439536594
14.009497869018190385759 146.99392760598647101 14.009497869018190385759 57.13020917896423612
15.009497869018190385759 150.46765332594102915 15.009497869018190385759 58.22750491438965526
16.009497869018204596614 153.74765726408159594 16.009497869018204596614 59.23717892551714925
17.009497869018204596614 156.85279055123987746 17.009497869018204596614 60.16898293821122223
18.009497869018204596614 159.79939397038572224 18.009497869018204596614 61.03661242490727545
19.009497869018204596614 162.60134797584447597 19.009497869018204596614 61.83976166201569669
20.009497869018204596614 165.27121516394691980 20.009497869018204596614 62.58642545569875892
21.009497869018204596614 167.81924914790684511 21.009497869018204596614 63.27847978518824590
22.009497869018190385759 170.25420491619982499 22.009497869018190385759 63.92227218286203083
23.009497869018190385759 172.58418346527477638 23.009497869018190385759 64.51800899254548938
24.009497869018190385759 174.81657442498934074 24.009497869018190385759 65.07645956571847989
25.009497869018190385759 176.95833765764962209 25.009497869018190385759 65.59887288435461983
26.009497869018190385759 179.01561441475888614 26.009497869018190385759 66.08552866946425297
27.009497869018204596614 180.99400676364948026 27.009497869018204596614 66.54533416025853398
28.009497869018190385759 182.89836638073700215 28.009497869018190385759 66.97678537662156373
29.009497869018190385759 184.73303873150922527 29.009497869018190385759 67.37525430795552950
30.009497869018190385759 186.50205738726361915 30.009497869018190385759 67.75499357921100341
31.009497869018190385759 188.20911642104661610 31.009497869018190385759 68.10988207812201267
32.009497869018190385759 189.85761634712443424 32.009497869018190385759 68.44143327545675959
33.009497869018218807469 191.45078817572331786 33.009497869018218807469 68.74461527101865954
34.009497869018190385759 192.99157406037258511 34.009497869018190385759 69.03510883227846762
35.009497869018218807469 194.48264834199696338 35.009497869018218807469 69.29996585791337793
36.009497869018190385759 195.92649008393831878 36.009497869018190385759 69.55430130633975239
37.009497869018218807469 197.32539852214492271 37.009497869018218807469 69.79247624666402317
38.009497869018190385759 198.68154765221953539 38.009497869018190385759 70.01528298162871522
39.009497869018190385759 199.99693635148929616 39.009497869018190385759 70.21837412940865875
40.009497869018190385759 201.27343430647201217 40.009497869018190385759 70.39657312690093249
41.009497869018190385759 202.51282352775001527 41.009497869018190385759 70.58437262766329923
42.009497869018190385759 203.71674576710213955 42.009497869018190385759 70.73886487677417279
43.009497869018190385759 204.88678295531781259 43.009497869018190385759 70.90052382260772390
44.009497869018218807469 206.02442222039155695 44.009497869018218807469 71.02383960372021932
46.009497869018218807469 208.20790184611439599 46.009497869018218807469 71.24147305209470460
48.009497869018218807469 210.27659006933961905 48.009497869018218807469 71.41440491935419743
50.009497869018218807469 212.23797878956128216 50.009497869018218807469 71.49096068650328561
52.009497869018190385759 214.09955793668166280 52.009497869018190385759 71.51302737837978896
54.009497869018190385759 215.86847834344678176 54.009497869018190385759 71.49536968708089546
56.009497869018190385759 217.55051557118676442 56.009497869018190385759 71.42476943689263180
58.009497869018190385759 219.15040006673174844 58.009497869018190385759 71.23855916646583353
60.009497869018190385759 220.67300366232959163 60.009497869018190385759 71.10360944605804434
62.009497869018190385759 222.12242187073965738 62.009497869018190385759 70.93689561237027874
64.009497869018190385759 223.50297678189326689 64.009497869018190385759 70.73880988924702251
66.009497869018218807469 224.82056518317980931 66.009497869018218807469 70.49746246167056540
68.009497869018218807469 226.08034573500248143 68.009497869018218807469 70.22389838505883120
70.009497869018218807469 227.28531398518049400 70.009497869018218807469 69.93863659822618217
72.009497869018218807469 228.43863152496115276 72.009497869018218807469 69.54023211616946298
74.009497869018190385759 229.54324505910926746 74.009497869018190385759 69.13178596142697074
76.009497869018190385759 230.60163930185024128 76.009497869018190385759 68.69207188282828724
78.009497869018190385759 231.61687783954934616 78.009497869018190385759 68.25978173261300697
80.009497869018190385759 232.59093670734031889 80.009497869018190385759 67.74866138510762426
82.009497869018190385759 233.52398720917639707 82.009497869018190385759 67.25236177003726823
84.009497869018190385759 234.41647301973694084 84.009497869018190385759 66.77242425974095852
86.009497869018190385759 235.26930032939733906 86.009497869018190385759 66.15925910999793302
88.009497869018218807469 236.08514071195895667 88.009497869018218807469 65.60201939808929694
91.009497869018190385759 237.24195978440849331 91.009497869018190385759 64.68721297062285203
94.009497869018218807469 238.32360409905905385 94.009497869018218807469 63.82576283437149556
97.009497869018190385759 239.34010524714753387 97.009497869018190385759 63.00882862879823421
99.504748934509109403734 240.14264602061689402 99.504748934509109403734 63.04756751037053419
nan nan nan nan

