Time Pressure difference Time.1 Pressure.1 difference.1
(hr) (psi) (hr) (psi)
0.000200000000006639311 0.37629234633677400 0.000200000000006639311 0.28385703285875885
0.000399999999999067768 0.65012641870359922 0.000399999999999067768 0.50626336344055034
0.000600000000005707079 0.88177272769047566 0.000600000000005707079 0.65469838178798767
0.000799999999998135536 1.08713636790430401 0.000799999999998135536 0.78318728980400987
0.001007140329434719206 1.28024674298054397 0.001007140329434719206 0.90156009426385386
0.001267914553963578328 1.50231584865900381 0.001267914553963578328 1.03488235164220632
0.001596209851982166583 1.75682148695128437 0.001596209851982166583 1.18408732183223497
0.002009509145224797066 2.04759929699387211 0.002009509145224797066 1.35083946471103511
0.002529822128138903281 2.37889325019357223 0.002529822128138903281 1.53704061167657469
0.003184857364431081805 2.75541432720251844 0.003184857364431081805 1.74486572794529238
0.004009497869020606231 3.18240742378992847 0.004009497869020606231 1.97679893377958327
0.005047658755842121536 3.66572653389890224 0.005047658755842121536 2.23567007155235897
0.006354625877790454069 4.21191837908535405 0.006354625877790454069 2.52469260671075890
0.008000000000009777068 4.82831488149995458 0.008000000000009777068 2.84750408241080777
0.010071403294347192059 5.52313519174653944 0.010071403294347192059 3.20821051038451932
0.012679145539706837553 6.30559827781622051 0.012679145539706837553 3.61143513687431472
0.015962098519750611558 7.18604694921808296 0.015962098519750611558 4.06236886916795381
0.020095091452091651263 8.17608301794505898 0.020095091452091651263 4.56681693092100893
0.025298221281360611101 9.28871189237921335 0.025298221281360611101 5.13124575173959130
0.031848573644296607199 10.53849804284315006 0.031848573644296607199 5.76286535125998256
0.040094978690177640601 11.94174571673921292 0.040094978690177640601 6.46980373839706946
0.050476587558421215363 13.51673213955179875 0.050476587558421215363 7.26135318563840482
0.063546258777961384112 15.28399798035998103 0.063546258777961384112 8.14804827328192971
0.079999999999998294697 17.26661135493409560 0.079999999999998294697 9.14112287456541850
0.100714032943542974863 19.49020124778569141 0.100714032943542974863 10.25100299705495921
0.126791455396897845276 21.98251839559363674 0.126791455396897845276 11.48500017219959979
0.159620985197506115583 24.77239524634996926 0.159620985197506115583 12.84508448897053334
0.200950914520760193227 27.88826759412991407 0.200950914520760193227 14.32687479666608610
0.252982212813478213320 31.35665249833137125 0.252982212813478213320 15.92078052633672769
0.318485736442795541734 35.20117323254884667 0.318485736442795541734 17.61378527017225792
0.400949786901833249431 39.44182959554260037 0.400949786901833249431 19.39488934336246473
0.504765875584155310207 44.09648298191879690 0.504765875584155310207 21.25651824856357308
0.635462587779443310865 49.18072021007104411 0.635462587779443310865 23.19669479492979391
0.799999999999997157829 54.71025343347224634 0.799999999999997157829 25.22234982073989684
1.007140329435344483500 60.70219120444243543 1.007140329435344483500 27.35345765455072353
1.267914553968893187630 67.17915354692031826 1.267914553968893187630 29.59766289828811736
1.596209851975103788391 74.15879602439902385 1.596209851975103788391 32.00036799359821771
2.009509145207672986544 81.68031560347412778 2.009509145207672986544 34.58031987329915324
2.529822128134711078928 89.76457444244120154 2.529822128134711078928 37.38130300767301861
3.184857364427998049905 98.46302234888636917 3.184857364427998049905 40.46449044380428717
4.009497869018190385759 107.81424800251153329 4.009497869018190385759 43.84272273286887867
5.009497869018204596614 117.52011709529544703 5.009497869018204596614 47.40953611606317253
6.009497869018204596614 125.95989042051184015 6.009497869018204596614 50.53791692686822756
7.009497869018204596614 133.46053902109187561 7.009497869018204596614 53.32081501506372234
8.009497869018204596614 140.22740460346037139 8.009497869018204596614 55.81143465210661958
9.009497869018204596614 146.39937970959852009 9.009497869018204596614 58.05585767272670239
10.009497869018190385759 152.07593203455911635 10.009497869018190385759 60.08493710609621985
11.009497869018190385759 157.33144989876512909 11.009497869018190385759 61.91321367035195067
12.009497869018190385759 162.22351151546587289 12.009497869018190385759 63.58013404355661180
13.009497869018190385759 166.79765621501505279 13.009497869018190385759 65.10340156216508944
14.009497869018190385759 171.09129278729571411 14.009497869018190385759 66.49581724108951164
15.009497869018190385759 175.13448174002974156 15.009497869018190385759 67.77299752330598892
16.009497869018204596614 178.95219124179990899 16.009497869018204596614 68.94819186412651391
17.009497869018204596614 182.56636277275461566 17.009497869018204596614 70.03275063299994940
18.009497869018204596614 185.99601593274405786 18.009497869018204596614 71.04261446177731898
19.009497869018204596614 189.25730666040917072 19.009497869018204596614 71.97742750824777147
20.009497869018204596614 192.36485699410212646 20.009497869018204596614 72.84649520253461219
21.009497869018204596614 195.33060146723582307 21.009497869018204596614 73.65200106144860115
22.009497869018190385759 198.16473031229816115 22.009497869018190385759 74.40133319644597520
23.009497869018190385759 200.87667255794278276 23.009497869018190385759 75.09473177820869694
24.009497869018190385759 203.47502924875809072 24.009497869018190385759 75.74473162567232976
25.009497869018190385759 205.96790120808395841 25.009497869018190385759 76.35278647195374901
26.009497869018190385759 208.36243644996528701 26.009497869018190385759 76.91922189396659348
27.009497869018204596614 210.66515541342809570 27.009497869018204596614 77.45440533407142425
28.009497869018190385759 212.88170513167747799 28.009497869018190385759 77.95658625803493180
29.009497869018190385759 215.01714344159267966 29.009497869018190385759 78.42037796499742797
30.009497869018190385759 217.07616515566749626 30.009497869018190385759 78.86236957580297258
31.009497869018190385759 219.06306993269359396 31.009497869018190385759 79.27543651715841122
32.009497869018190385759 220.98181574829237661 32.009497869018190385759 79.66134036979393329
33.009497869018218807469 222.83616328649759453 33.009497869018218807469 80.01422433184139038
34.009497869018190385759 224.62953702108939069 34.009497869018190385759 80.35233978838968483
35.009497869018218807469 226.36504970953745897 35.009497869018218807469 80.66061599855491693
36.009497869018190385759 228.04558681901019668 36.009497869018190385759 80.95664578278889678
37.009497869018218807469 229.67382450938180227 37.009497869018218807469 81.23386579529747564
38.009497869018190385759 231.25229316897684839 38.009497869018190385759 81.49319822451866457
39.009497869018190385759 232.78331935993017510 39.009497869018190385759 81.72958300308221169
40.009497869018190385759 234.26907927474610460 40.009497869018190385759 81.93699495098306329
41.009497869018190385759 235.71164705688934760 41.009497869018190385759 82.15558125514910159
42.009497869018190385759 237.11293359777459955 42.009497869018190385759 82.33540010247486407
43.009497869018190385759 238.47478016110761700 43.009497869018190385759 82.52356051483849342
44.009497869018218807469 239.79891766635736872 44.009497869018218807469 82.66709199777271522
46.009497869018218807469 242.34034477170692412 46.009497869018218807469 82.92040306063482547
48.009497869018218807469 244.74816221185432141 48.009497869018218807469 83.12168441433030353
50.009497869018218807469 247.03109006653852475 50.009497869018218807469 83.21079030724150982
52.009497869018190385759 249.19784612302291293 52.009497869018190385759 83.23647448958958250
54.009497869018190385759 251.25675348171677115 54.009497869018190385759 83.21592209479906899
56.009497869018190385759 253.21453451728291384 56.009497869018190385759 83.13374803310455263
58.009497869018190385759 255.07669515963860363 58.009497869018190385759 82.91701148883727512
60.009497869018190385759 256.84890590205577610 60.009497869018190385759 82.75993886344460293
62.009497869018190385759 258.53593365282813465 62.009497869018190385759 82.56589489308672114
64.009497869018190385759 260.14280904122006177 64.009497869018190385759 82.33533610059899388
66.009497869018218807469 261.67639554107813638 66.009497869018218807469 82.05442352096082459
68.009497869018218807469 263.14269749483901251 68.009497869018218807469 81.73601287441273655
70.009497869018218807469 264.54520152373470410 70.009497869018218807469 81.40398686023047503
72.009497869018218807469 265.88758751265970659 72.009497869018218807469 80.94027016800052365
74.009497869018190385759 267.17328523273369001 74.009497869018190385759 80.46486562723467273
76.009497869018190385759 268.40518672838305747 76.009497869018190385759 79.95306727345588627
78.009497869018190385759 269.58685781324595609 78.009497869018190385759 79.44990988550037514
80.009497869018190385759 270.72059846264204452 80.009497869018190385759 78.85499931709247790
82.009497869018190385759 271.80660806313971989 82.009497869018190385759 78.27733910938762563
84.009497869018190385759 272.84540302297250491 84.009497869018190385759 77.71872331871489337
86.009497869018190385759 273.83803808831493143 86.009497869018190385759 77.00503929196480613
88.009497869018218807469 274.78762279588670481 88.009497869018218807469 76.35644880761212505
91.009497869018190385759 276.13408433922955965 91.009497869018190385759 75.29167411334790927
94.009497869018218807469 277.39304739398676247 94.009497869018218807469 74.28900264328486003
97.009497869018190385759 278.57618807454878151 97.009497869018190385759 73.33814479745367976
99.504748934509109403734 279.51029290924265069 99.504748934509109403734 73.38323431534931274
nan nan nan nan

