Time Pressure difference Time.1 Pressure.1 difference.1
(hr) (psi) (hr) (psi)
0.000200000000006639311 0.04239913761541115 0.000200000000006639311 0.03198389102633903
0.000399999999999067768 0.07325368098068723 0.000399999999999067768 0.05704375926090709
0.000600000000005707079 0.09935467354258881 0.000600000000005707079 0.07376883175075918
0.000799999999998135536 0.12249423863710468 0.000799999999998135536 0.08824645518918421
0.001007140329434719206 0.14425315413865283 0.001007140329434719206 0.10158423597339199
0.001267914553963578328 0.16927502520101451 0.001267914553963578328 0.11660646215686832
0.001596209851982166583 0.19795171683958132 0.001596209851982166583 0.13341828978391376
0.002009509145224797066 0.23071541374578841 0.002009509145224797066 0.15220726362941242
0.002529822128138903281 0.26804430988096584 0.002529822128138903281 0.17318767455510700
0.003184857364431081805 0.31046921996648091 0.003184857364431081805 0.19660458906425829
0.004009497869020606231 0.35858111817351307 0.004009497869020606231 0.22273790803150234
0.005047658755842121536 0.41303960945339746 0.005047658755842121536 0.25190648693547707
0.006354625877790454069 0.47458235257299758 0.006354625877790454069 0.28447240638994464
0.008000000000009777068 0.54403547960562870 0.008000000000009777068 0.32084553041248537
0.010071403294347192059 0.62232509202777908 0.010071403294347192059 0.36148850821234019
0.012679145539706837553 0.71048994679619393 0.012679145539706837553 0.40692226894358474
0.015962098519750611558 0.80969543089781215 0.015962098519750611558 0.45773170356822013
0.020095091452091651263 0.92124879075437294 0.020095091452091651263 0.51457092179391650
0.025298221281360611101 1.04661542449343248 0.025298221281360611101 0.57816853540727786
0.031848573644296607199 1.18743639919359456 0.031848573644296607199 0.64933694098704020
0.040094978690177640601 1.34554881315371411 0.040094978690177640601 0.72899197052361353
0.050476587558421215363 1.52301207206217448 0.050476587558421215363 0.81818064063531326
0.063546258777961384112 1.72214061750535019 0.063546258777961384112 0.91808994628528784
0.079999999999998294697 1.94553367379539099 0.079999999999998294697 1.02998567600737112
0.100714032943542974863 2.19607901383500748 0.100714032943542974863 1.15504259121746000
0.126791455396897845276 2.47690348119364945 0.126791455396897845276 1.29408452644502514
0.159620985197506115583 2.79125580240563043 0.159620985197506115583 1.44733346354597558
0.200950914520760193227 3.14234001060618739 0.200950914520760193227 1.61429575173702378
0.252982212813478213320 3.53314394347395755 0.252982212813478213320 1.79389076353089871
0.318485736442795541734 3.96632937831536259 0.318485736442795541734 1.98465186142785965
0.400949786901833249431 4.44414981358226502 0.400949786901833249431 2.18533964432253125
0.504765875584155310207 4.96861780077958315 0.504765875584155310207 2.39510064772547304
0.635462587779443310865 5.54148960113476541 0.635462587779443310865 2.61371208956955448
0.799999999999997157829 6.16453559813771790 0.799999999999997157829 2.84195490937914341
1.007140329435344483500 6.83968351599351454 1.007140329435344483500 3.08207973572402505
1.267914553968893187630 7.56948208979383885 1.267914553968893187630 3.33494793220147745
1.596209851975103788391 8.35592067880552314 1.596209851975103788391 3.60567526688430640
2.009509145207672986544 9.20341584264497214 2.009509145207672986544 3.89637407023089022
2.529822128134711078928 10.11431824703563009 2.529822128134711078928 4.21197780368146635
3.184857364427998049905 11.09442505339564811 3.184857364427998049905 4.55937920493569493
4.009497869018190385759 12.14808428197313006 4.009497869018190385759 4.94002509666128198
5.009497869018204596614 13.24170333468117811 5.009497869018204596614 5.34191956237331578
6.009497869018204596614 14.19266370935344668 6.009497869018204596614 5.69441317485839171
7.009497869018204596614 15.03780721364415207 7.009497869018204596614 6.00797915662689785
8.009497869018204596614 15.80027094123496845 8.009497869018204596614 6.28861235516694261
9.009497869018204596614 16.49570475601110076 9.009497869018204596614 6.54150508988469959
10.009497869018190385759 17.13531628558412478 10.009497869018190385759 6.77013375843337695
11.009497869018190385759 17.72748731253691190 11.009497869018190385759 6.97613675158895230
12.009497869018190385759 18.27870552286939443 12.009497869018190385759 7.16395876547116739
13.009497869018190385759 18.79410210873409426 13.009497869018190385759 7.33559454221578555
14.009497869018190385759 19.27789214504740656 14.009497869018190385759 7.49248644970022681
15.009497869018190385759 19.73346273127095429 15.009497869018190385759 7.63639408713306889
16.009497869018204596614 20.16362718217463978 16.009497869018204596614 7.76881035088749616
17.009497869018204596614 20.57085777721178843 17.009497869018204596614 7.89101415583098031
18.009497869018204596614 20.95729756988665216 18.009497869018204596614 8.00480162949603447
19.009497869018204596614 21.32476694765173519 19.009497869018204596614 8.11013267698566587
20.009497869018204596614 21.67491346412418096 20.009497869018204596614 8.20805579746869007
21.009497869018204596614 22.00908185546319018 21.009497869018204596614 8.29881702100829344
22.009497869018190385759 22.32842031687866324 22.009497869018190385759 8.38324881086715124
23.009497869018190385759 22.63399127413439871 23.009497869018190385759 8.46137822853055610
24.009497869018190385759 22.92676385901499714 24.009497869018190385759 8.53461764796307953
25.009497869018190385759 23.20765084034749037 25.009497869018190385759 8.60313087007929411
26.009497869018190385759 23.47745762816510506 26.009497869018190385759 8.66695457960186921
27.009497869018204596614 23.73691891982288382 27.009497869018204596614 8.72725693905030120
28.009497869018190385759 23.98667100075239134 28.009497869018190385759 8.78384070513069659
29.009497869018190385759 24.22728376806678341 29.009497869018190385759 8.83609892563351274
30.009497869018190385759 24.45928621472310027 30.009497869018190385759 8.88590079727357640
31.009497869018190385759 24.68316280931759010 31.009497869018190385759 8.93244355122911671
32.009497869018190385759 24.89935952093435390 32.009497869018190385759 8.97592567546973896
33.009497869018218807469 25.10830008861944762 33.009497869018218807469 9.01568724865818361
34.009497869018190385759 25.31037036857345157 34.009497869018190385759 9.05378476488897732
35.009497869018218807469 25.50592109403239149 35.009497869018218807469 9.08852011251322978
36.009497869018190385759 25.69527738805748385 36.009497869018190385759 9.12187558115931196
37.009497869018218807469 25.87874078978950010 37.009497869018218807469 9.15311163890675772
38.009497869018190385759 26.05659641340584187 38.009497869018190385759 9.18233219431196268
39.009497869018190385759 26.22910640675269178 39.009497869018190385759 9.20896709893884058
40.009497869018190385759 26.39651597461928034 40.009497869018190385759 9.23233745926569682
41.009497869018190385759 26.55905882331147794 41.009497869018190385759 9.25696690198862981
42.009497869018190385759 26.71695026453798505 42.009497869018190385759 9.27722818056054876
43.009497869018190385759 26.87039776463184992 43.009497869018190385759 9.29842935378461988
44.009497869018218807469 27.01959635677266292 44.009497869018218807469 9.31460191524199566
46.009497869018218807469 27.30595434047402037 46.009497869018218807469 9.34314400683209278
48.009497869018218807469 27.57725771401175408 48.009497869018218807469 9.36582359598087777
50.009497869018218807469 27.83448902158180616 50.009497869018218807469 9.37586369659059393
52.009497869018190385759 28.07863054907300437 52.009497869018190385759 9.37875768896784123
54.009497869018190385759 28.31062011061597161 54.009497869018190385759 9.37644192617454308
56.009497869018190385759 28.53121515687695009 56.009497869018190385759 9.36718287696952601
58.009497869018190385759 28.74103607432547136 58.009497869018190385759 9.34276185789715896
60.009497869018190385759 28.94072179178093052 60.009497869018190385759 9.32506353390925291
62.009497869018190385759 29.13080942567077614 62.009497869018190385759 9.30319942457315108
64.009497869018190385759 29.31186580746141246 64.009497869018190385759 9.27722096908157745
66.009497869018218807469 29.48466428631866165 66.009497869018218807469 9.24556884743220664
68.009497869018218807469 29.64988140786918080 68.009497869018218807469 9.20969159148312677
70.009497869018218807469 29.80791003084334534 70.009497869018218807469 9.17228020960343393
72.009497869018218807469 29.95916479015883738 72.009497869018218807469 9.12003044146484854
74.009497869018190385759 30.10403213889957286 74.009497869018190385759 9.06646373264615946
76.009497869018190385759 30.24283794122626290 76.009497869018190385759 9.00879631250207069
78.009497869018190385759 30.37598397895729363 78.009497869018190385759 8.95210252230990200
80.009497869018190385759 30.50372940424135138 80.009497869018190385759 8.88507034558788433
82.009497869018190385759 30.62609668317067246 82.009497869018190385759 8.81998187148029622
84.009497869018190385759 30.74314400258845126 84.009497869018190385759 8.75703924717914362
86.009497869018190385759 30.85499020713408314 86.009497869018190385759 8.67662414557349848
88.009497869018218807469 30.96198566714216227 88.009497869018218807469 8.60354352761826924
91.009497869018190385759 31.11369964385685449 91.009497869018190385759 8.48356891418004544
94.009497869018218807469 31.25555463594217187 94.009497869018218807469 8.37059184713068838
97.009497869018190385759 31.38886626192098461 97.009497869018190385759 8.26345293492435928
99.504748934509109403734 31.49411751090057621 99.504748934509109403734 8.26853344398302070
nan nan nan nan

