Time Pressure difference Time.1 Pressure.1 difference.1
(hr) (psi) (hr) (psi)
0.000200000000006639311 0.46109062156759623 0.000200000000006639311 0.34782481491143691
0.000399999999999067768 0.79663378066497370 0.000399999999999067768 0.62035088196236454
0.000600000000005707079 1.08048207477565339 0.000600000000005707079 0.80223604528950609
0.000799999999998135536 1.33212484517851326 0.000799999999998135536 0.95968020018237832
0.001007140329434719206 1.56875305125784958 0.001007140329434719206 1.10472856621063764
0.001267914553963578328 1.84086589906103293 0.001267914553963578328 1.26809527595594296
0.001596209851982166583 2.15272492063044707 0.001596209851982166583 1.45092390140006233
0.002009509145224797066 2.50903012448544871 0.002009509145224797066 1.65525399196985989
0.002529822128138903281 2.91498186995550368 0.002529822128138903281 1.88341596078678863
0.003184857364431081805 3.37635276713548027 0.003184857364431081805 2.13807490607380890
0.004009497869020606231 3.89956966013695450 0.004009497869020606231 2.42227474984258828
0.005047658755842121536 4.49180575280569716 0.005047658755842121536 2.73948304542331345
0.006354625877790454069 5.16108308423134865 0.006354625877790454069 3.09363741949064819
0.008000000000009777068 5.91638584071121176 0.008000000000009777068 3.48919514323577840
0.010071403294347192059 6.76778537580209782 0.010071403294347192059 3.93118752680919981
0.012679145539706837553 7.72657817140860903 0.012679145539706837553 4.42527967476148376
0.015962098519750611558 8.80543781101370726 0.015962098519750611558 4.97783227630439384
0.020095091452091651263 10.01858059945380575 0.020095091452091651263 5.59595877450884238
0.025298221281360611101 11.38194274136607653 0.025298221281360611101 6.28758282255414702
0.031848573644296607199 12.91337084123033918 0.031848573644296607199 7.06153923323406385
0.040094978690177640601 14.63284334304664114 0.040094978690177640601 7.92778767944429674
0.050476587558421215363 16.56275628367614772 0.050476587558421215363 8.89771446690903112
0.063546258777961384112 18.72827921537068363 0.063546258777961384112 9.98422816585250672
0.079999999999998294697 21.15767870252487626 0.079999999999998294697 11.20109422658016207
0.100714032943542974863 23.88235927545570192 0.100714032943542974863 12.56108817948988055
0.126791455396897845276 26.93632535798093386 0.126791455396897845276 14.07316922508965007
0.159620985197506115583 30.35490685116123188 0.159620985197506115583 15.73975141606248407
0.200950914520760193227 34.17294761534228797 0.200950914520760193227 17.55546630014013587
0.252982212813478213320 38.42294038527928990 0.252982212813478213320 19.50856205339852778
0.318485736442795541734 43.13383198917956918 0.318485736442795541734 21.58308899302797457
0.400949786901833249431 48.33012922270713574 0.400949786901833249431 23.76556863200752545
0.504765875584155310207 54.03371858347797030 0.504765875584155310207 26.04671954401451828
0.635462587779443310865 60.26369941234057848 0.635462587779443310865 28.42411897406890375
0.799999999999997157829 67.03932462974768214 0.799999999999997157829 30.90625963949818455
1.007140329435344483500 74.38155823642945563 1.007140329435344483500 33.51761712599876830
1.267914553968893187630 82.31811772650800663 1.267914553968893187630 36.26755876269107404
1.596209851975103788391 90.87063738201007368 1.596209851975103788391 39.21171852736683405
2.009509145207672986544 100.08714728876407207 2.009509145207672986544 42.37306801376092835
2.529822128134711078928 109.99321093651246883 2.529822128134711078928 45.80525861503595308
3.184857364427998049905 120.65187245567766183 3.184857364427998049905 49.58324885367568413
4.009497869018190385759 132.11041656645778630 4.009497869018190385759 53.72277292619144617
5.009497869018204596614 144.00352376465781390 5.009497869018204596614 58.09337524080980586
6.009497869018204596614 154.34521783921871929 6.009497869018204596614 61.92674327658500744
7.009497869018204596614 163.53615344838016199 7.009497869018204596614 65.33677332831751983
8.009497869018204596614 171.82794648593028342 8.009497869018204596614 68.38865936244049237
9.009497869018204596614 179.39078922162070739 9.009497869018204596614 71.13886785249610512
10.009497869018190385759 186.34656460572736592 10.009497869018190385759 73.62520462296296841
11.009497869018190385759 192.78642452383894579 11.009497869018190385759 75.86548717352985705
12.009497869018190385759 198.78092256120467596 12.009497869018190385759 77.90805157449892704
13.009497869018190385759 204.38586043248324131 13.009497869018190385759 79.77459064659667831
14.009497869018190385759 209.64707707739052012 14.009497869018190385759 81.48079014048995816
15.009497869018190385759 214.60140720257163593 15.009497869018190385759 83.04578569757212847
16.009497869018204596614 219.27944560614918146 16.009497869018204596614 84.48581256590151156
17.009497869018204596614 223.70807832717818542 17.009497869018204596614 85.81477894466191003
18.009497869018204596614 227.91061107251735507 18.009497869018204596614 87.05221772076937725
19.009497869018204596614 231.90684055571261979 19.009497869018204596614 88.19769286221909965
20.009497869018204596614 235.71468392235050260 20.009497869018204596614 89.26260679747200300
21.009497869018204596614 239.34876517816221053 21.009497869018204596614 90.24963510346519513
22.009497869018190385759 242.82157094605548764 22.009497869018190385759 91.16783081818027767
23.009497869018190385759 246.14465510621155886 23.009497869018190385759 92.01748823526979493
24.009497869018190385759 249.32855696678808499 24.009497869018190385759 92.81396692159849238
25.009497869018190385759 252.38320288877898179 25.009497869018190385759 93.55904821211233013
26.009497869018190385759 255.31735170629551135 26.009497869018190385759 94.25313105317033546
27.009497869018204596614 258.13899325307386334 27.009497869018204596614 94.90891921217202309
28.009497869018190385759 260.85504713318226777 28.009497869018190385759 95.52426766829633209
29.009497869018190385759 263.47171097772621806 29.009497869018190385759 96.09257581626444278
30.009497869018190385759 265.99473758511373944 30.009497869018190385759 96.63417117035012893
31.009497869018190385759 268.42939555132875284 31.009497869018190385759 97.14032361961665174
32.009497869018190385759 270.78053479016108440 32.009497869018190385759 97.61319172073341122
33.009497869018218807469 273.05276346373648266 33.009497869018218807469 98.04559882915775404
34.009497869018190385759 275.25027775823633647 34.009497869018190385759 98.45990931816764657
35.009497869018218807469 277.37689189760220643 35.009497869018218807469 98.83765622358137648
36.009497869018190385759 279.43614159512515016 36.009497869018190385759 99.20039694510751360
37.009497869018218807469 281.43130608896080957 37.009497869018218807469 99.54008907311099108
38.009497869018190385759 283.36548599578850371 38.009497869018190385759 99.85786261314260059
39.009497869018190385759 285.24153217343553024 39.009497869018190385759 100.14751720095989640
40.009497869018190385759 287.06211122398468660 40.009497869018190385759 100.40166986951444983
41.009497869018190385759 288.82976470351229636 41.009497869018190385759 100.66951505912635412
42.009497869018190385759 290.54683412685056965 42.009497869018190385759 100.88985646359596160
43.009497869018190385759 292.21557569037133817 43.009497869018190385759 101.12041922240773317
44.009497869018218807469 293.83811037990267323 44.009497869018218807469 101.29629582825671719
46.009497869018218807469 296.95225345265498618 46.009497869018218807469 101.60669107429899327
48.009497869018218807469 299.90267763987776561 48.009497869018218807469 101.85333160629205906
50.009497869018218807469 302.70006810970215838 50.009497869018218807469 101.96251770042270834
52.009497869018190385759 305.35510722116890747 52.009497869018190385759 101.99398986752528629
54.009497869018190385759 307.87799370294868595 54.009497869018190385759 101.96880594714815516
56.009497869018190385759 310.27696483103682112 56.009497869018190385759 101.86811378704359754
58.009497869018190385759 312.55876730828953214 58.009497869018190385759 101.60253520463160726
60.009497869018190385759 314.73034948561763713 60.009497869018190385759 101.41006593126311941
62.009497869018190385759 316.79755250416968693 62.009497869018190385759 101.17229374223302329
64.009497869018190385759 318.76654065614286537 64.009497869018190385759 100.88977803876215944
66.009497869018218807469 320.64572411371545968 66.009497869018218807469 100.54556121582523076
68.009497869018218807469 322.44246031057730306 68.009497869018218807469 100.15539605737899365
70.009497869018218807469 324.16102158542139478 70.009497869018218807469 99.74854727943734645
72.009497869018218807469 325.80591709297738134 72.009497869018218807469 99.18033105093022073
74.009497869018190385759 327.38134951053285704 74.009497869018190385759 98.59779309252698454
76.009497869018190385759 328.89086261083559748 76.009497869018190385759 97.97065989846002765
78.009497869018190385759 330.33882577116048651 78.009497869018190385759 97.35411493012018980
80.009497869018190385759 331.72805727112472596 80.009497869018190385759 96.62514000826824656
82.009497869018190385759 333.05880142948109324 82.009497869018190385759 95.91730285234822873
84.009497869018190385759 334.33169102814940743 84.009497869018190385759 95.23280181307316639
86.009497869018190385759 335.54801850258314744 86.009497869018190385759 94.35828758311180309
88.009497869018218807469 336.71159413017096540 88.009497869018218807469 93.56353586284866708
91.009497869018190385759 338.36148362694325442 91.009497869018190385759 92.25881194170800370
94.009497869018218807469 339.90415666587114174 94.009497869018218807469 91.03018633754622613
97.009497869018190385759 341.35392059839074363 97.009497869018190385759 89.86505066730241253
99.504748934509109403734 342.49852793104372495 99.504748934509109403734 89.92030120331536125
nan nan nan nan

