Time Pressure difference Time.1 Pressure.1 difference.1
(hr) (psi) (hr) (psi)
0.000200000000006639311 0.64262769898804184 0.000200000000006639311 0.51510008162931764
0.000399999999999067768 1.20168702403385974 0.000399999999999067768 1.09800880450044391
0.000600000000019917934 1.71601629863337224 0.000600000000019917934 1.50733189939976731
0.000799999999998135536 2.19839441019801773 0.000799999999998135536 1.88720951975477691
0.001007140329448930061 2.67171645104233235 0.001007140329448930061 2.25517241096204124
0.001267914553963578328 3.23692891909202762 0.001267914553963578328 2.68684833958870062
0.001596209851982166583 3.90903969713585120 0.001596209851982166583 3.18756265471320122
0.002009509145210586212 4.70483167445077566 0.002009509145210586212 3.76523288460195804
0.002529822128153114136 5.64295770603867908 0.002529822128153114136 4.42819753985348985
0.003184857364431081805 6.74403900442330517 0.003184857364431081805 5.18525122845377773
0.004009497869020606231 8.03077605249094617 0.004009497869020606231 6.04572436490735310
0.005047658755856332391 9.52808339635922685 0.005047658755856332391 7.01961318829275971
0.006354625877790454069 11.26326000229243895 0.006354625877790454069 8.11775468316906768
0.007999999999995566213 13.26620399707849352 0.007999999999995566213 9.35203307820911256
0.010071403294347192059 15.56967726685802766 0.010071403294347192059 10.73562521091363564
0.012679145539706837553 18.20963199026459733 0.012679145539706837553 12.28335174590981183
0.015962098519764822413 21.22563528238972452 0.015962098519764822413 14.01222004788606235
0.020095091452077440408 24.66144332253308846 0.020095091452077440408 15.94205002144855676
0.025298221281346400247 28.56571079089843579 0.025298221281346400247 18.09561162848188687
0.031848573644282396344 32.99262354125142593 0.031848573644282396344 20.49732132963637810
0.040094978690177640601 38.00200123605691971 0.040094978690177640601 23.16981700271514200
0.050476587558421215363 43.65834427304094589 0.050476587558421215363 26.12879245231530945
0.063546258777947173257 50.02854709731235516 0.063546258777947173257 29.37812133668746384
0.079999999999998294697 57.17868665604073186 0.079999999999998294697 32.90774961127966947
0.100714032943528764008 65.17074888970090285 0.100714032943528764008 36.69479785808918137
0.126791455396883634421 74.05990406613479138 0.126791455396883634421 40.70958228488597541
0.159620985197506115583 83.89397721778510686 0.159620985197506115583 44.92570490014544760
0.200950914520774404082 94.71532830809897519 0.200950914520774404082 49.32141827759282648
0.252982212813464002465 106.56089995377419655 0.252982212813464002465 53.88989971962207903
0.318485736442795541734 119.46874478661277408 0.318485736442795541734 58.65370924376614425
0.400949786901833249431 133.48460485327112224 0.400949786901833249431 63.63140706340436026
0.504765875584169521062 148.65296703372769116 0.504765875584169521062 68.87707729725458705
0.635462587779429100010 165.04153973293810509 0.635462587779429100010 74.45270057513106110
0.800000000000011368684 182.71939851377385367 0.800000000000011368684 80.44483918574456993
1.007140329435344483500 201.78858163250265534 1.007140329435344483500 86.94303252848737884
1.267914553968893187630 222.35193770600866969 1.267914553968893187630 94.00985588950310046
1.596209851975103788391 244.53019672426862030 1.596209851975103788391 101.69260401302514651
2.009509145207672986544 268.43454701814943064 2.009509145207672986544 109.93816227553692499
2.529822128134725289783 294.14419826538352254 2.529822128134725289783 118.59144901829195362
3.184857364427998049905 321.67806323269405766 3.184857364427998049905 127.38663214244316180
4.009497869018190385759 350.96866860825423373 4.009497869018190385759 135.97260911832873376
5.009497869018204596614 380.80462749297379332 5.009497869018204596614 143.70841418447136562
6.009497869018190385759 406.11510242116867175 6.009497869018190385759 149.39015746806489915
7.009497869018190385759 428.03262117439317080 7.009497869018190385759 153.56157967239587947
8.009497869018204596614 447.28809541577049913 8.009497869018204596614 156.57202324810506866
9.009497869018190385759 464.39509718246262082 9.009497869018190385759 158.65487640769910627
10.009497869018190385759 479.73577097613821252 10.009497869018190385759 160.00594291012384929
11.009497869018204596614 493.59121092787245288 11.009497869018204596614 160.96258051834973912
12.009497869018190385759 506.18237129533815732 12.009497869018190385759 161.46325197643147931
13.009497869018190385759 517.68348322138126605 13.009497869018190385759 161.59569755640339395
14.009497869018204596614 528.23554231273851656 14.009497869018204596614 161.42483591659419062
15.009497869018190385759 537.95457245013471947 15.009497869018190385759 160.95869237563925935
16.009497869018190385759 546.93762042356479469 16.009497869018190385759 160.21447287480626187
17.009497869018190385759 555.25671566640448873 17.009497869018190385759 159.08052505773321172
18.009497869018204596614 562.97773490774102356 18.009497869018204596614 157.76839568405119962
19.009497869018190385759 570.15536453121376326 19.009497869018190385759 156.04442133312966234
20.009497869018190385759 576.83441397094168224 20.009497869018190385759 154.34782828641519359
21.009497869018204596614 583.05458799625841948 21.009497869018204596614 152.53652543086772653
22.009497869018190385759 588.85970319987256971 22.009497869018190385759 150.63795735504936602
23.009497869018190385759 594.29487313661820735 23.009497869018190385759 148.60538277062420320
24.009497869018204596614 599.39040356308657920 24.009497869018204596614 146.56671147165738489
25.009497869018190385759 604.17371379777091533 25.009497869018190385759 144.41775464624001302
26.009497869018190385759 608.66964777099099138 26.009497869018190385759 141.94658819734311805
27.009497869018204596614 612.89851017971022884 27.009497869018204596614 139.42046268429638189
28.009497869018190385759 616.86615516571976059 28.009497869018190385759 136.79192232369717885
29.009497869018190385759 620.58255863642148142 29.009497869018190385759 134.12827973952173011
30.009497869018190385759 624.06745171655518334 30.009497869018190385759 131.45899803675462181
31.009497869018190385759 627.32915611714622628 31.009497869018190385759 128.71725860231509841
32.009497869018190385759 630.39607181048950224 32.009497869018190385759 125.96435355127498212
33.009497869018190385759 633.29098345611009790 33.009497869018190385759 123.25758167564339374
34.009497869018190385759 636.02529103989809300 34.009497869018190385759 120.52830793193646741
35.009497869018190385759 638.60623862461693534 35.009497869018190385759 117.68954082805657890
36.009497869018190385759 641.04361103615849515 36.009497869018190385759 115.04814022009013286
37.009497869018190385759 643.34307397591203426 37.009497869018190385759 112.42493342023644232
38.009497869018190385759 645.50987759933377674 38.009497869018190385759 109.77882439277145465
39.009497869018190385759 647.54884304080519541 39.009497869018190385759 107.07904737367074688
40.009497869018190385759 649.47171881469432719 40.009497869018190385759 104.27263250584186949
41.009497869018190385759 651.28595185234587461 41.009497869018190385759 101.67890927711387405
42.009497869018190385759 652.99835365829494549 42.009497869018190385759 99.01853062623138158
43.009497869018190385759 654.61557602426705671 43.009497869018190385759 96.44610099673269588
44.009497869018190385759 656.14350589439015948 44.009497869018190385759 93.85374213110026176
46.009497869018190385759 658.95241308068443686 46.009497869018190385759 88.85313957853790612
48.009497869018190385759 661.46300866710942046 48.009497869018190385759 84.07315327487509649
50.009497869018218807469 663.70755456988479182 50.009497869018218807469 79.44561067599624948
52.009497869018190385759 665.71694398913859914 52.009497869018190385759 74.99424651154785693
54.009497869018190385759 667.51651696511441969 54.009497869018190385759 70.75504006113875732
56.009497869018190385759 669.12972245196476706 56.009497869018190385759 66.69151813226258696
58.009497869018190385759 670.57633577334240726 58.009497869018190385759 62.82108482552476403
60.009497869018190385759 671.87505980208936762 60.009497869018190385759 59.13886865958799888
62.009497869018190385759 673.04090081691765590 62.009497869018190385759 55.63077054277665212
64.009497869018190385759 674.08925505055128724 64.009497869018190385759 52.29603910872585004
66.009497869018218807469 675.03162623451487434 66.009497869018218807469 49.16524256013546079
68.009497869018190385759 675.87937698724147140 68.009497869018190385759 46.20563009227699069
70.009497869018190385759 676.64250723167447177 70.009497869018190385759 43.36693753741122492
72.009497869018190385759 677.32920840824886000 72.009497869018190385759 40.72523075370255441
74.009497869018218807469 677.94794825783560555 74.009497869018218807469 38.20798448324050867
76.009497869018190385759 678.50563588677016469 76.009497869018190385759 35.82754845415151124
78.009497869018190385759 679.00837181611700544 78.009497869018190385759 33.57236455233378081
80.009497869018218807469 679.46182875559725289 80.009497869018218807469 31.45568021509663126
82.009497869018190385759 679.87074856872925466 82.009497869018190385759 29.44486692962520635
84.009497869018190385759 680.23938538847517066 84.009497869018190385759 27.48391456006692835
86.009497869018218807469 680.57206599420067050 86.009497869018218807469 25.68830174754635109
88.009497869018190385759 680.87229634151015034 88.009497869018190385759 23.93816054443357899
91.009497869018190385759 681.26858738110331615 91.009497869018190385759 21.51678648368230284
94.009497869018190385759 681.60876231230770372 94.009497869018190385759 19.26459446212854232
97.009497869018190385759 681.90005112424296385 97.009497869018190385759 17.22967222105850382
99.504748934509137825444 682.11023304118430133 99.504748934509137825444 14.64332022410329870
nan nan nan nan

