Time Pressure difference Time.1 Pressure.1 difference.1
(hr) (psi) (hr) (psi)
0.000200000000006639311 0.74497468896771912 0.000200000000006639311 0.59713660600581775
0.000399999999999067768 1.39307163132852652 0.000399999999999067768 1.27288127932337503
0.000600000000019917934 1.98931466905493859 0.000600000000019917934 1.74739450959669651
0.000799999999998135536 2.54851789697928366 0.000799999999998135536 2.18777268270597069
0.001007140329448930061 3.09722275472946418 0.001007140329448930061 2.61433854791915898
0.001267914553963578328 3.75245280978165674 0.001267914553963578328 3.11476459735634803
0.001596209851982166583 4.53160614944242734 0.001596209851982166583 3.69522431261443662
0.002009509145210586212 5.45413856084759541 0.002009509145210586212 4.36489619341722168
0.002529822128153114136 6.54167361371764500 0.002529822128153114136 5.13344676884424000
0.003184857364431081805 7.81811672235421096 0.003184857364431081805 6.01107130492474706
0.004009497869020606231 9.30978372282265809 0.004009497869020606231 7.00858620850581548
0.005047658755856332391 11.04555713337418510 0.005047658755856332391 8.13757975240872433
0.006354625877790454069 13.05708364296089918 0.006354625877790454069 9.41061485481137794
0.007999999999995566213 15.37902305186780971 0.007999999999995566213 10.84146846552952326
0.010071403294347192059 18.04935501141721588 0.010071403294347192059 12.44541600831808204
0.012679145539706837553 21.10975756184519625 0.012679145539706837553 14.23963853534506896
0.015962098519764822413 24.60609940645395710 0.015962098519764822413 16.24385205984624747
0.020095091452077440408 28.58910547682600622 0.020095091452077440408 18.48103306928489431
0.025298221281346400247 33.11517935672949875 0.025298221281346400247 20.97757794417726629
0.031848573644282396344 38.24713671629363176 0.031848573644282396344 23.76179179058605229
0.040094978690177640601 44.05432429315374065 0.040094978690177640601 26.85991786880303422
0.050476587558421215363 50.61151502941908831 0.050476587558421215363 30.29014943009467231
0.063546258777947173257 57.99625719840110349 0.063546258777947173257 34.05697706419890380
0.079999999999998294697 66.28515137807538338 0.079999999999998294697 38.14874548653222774
0.100714032943528764008 75.55005559261100245 0.100714032943528764008 42.53893142812071915
0.126791455396883634421 85.85492670722018715 0.126791455396883634421 47.19312355886022914
0.159620985197506115583 97.25520652549302270 0.159620985197506115583 52.08071965672332482
0.200950914520774404082 109.80000139725451902 0.200950914520774404082 57.17650872917044325
0.252982212813464002465 123.53213754121168222 0.252982212813464002465 62.47258147345139179
0.318485736442795541734 138.49572797581328132 0.318485736442795541734 67.99509088930636835
0.400949786901833249431 154.74379977573141787 0.400949786901833249431 73.76555315042541849
0.504765875584169521062 172.32792494700828456 0.504765875584169521062 79.84666598923337233
0.635462587779429100010 191.32659535671049866 0.635462587779429100010 86.31028127344553980
0.800000000000011368684 211.81988776786351991 0.800000000000011368684 93.25674748509933920
1.007140329435344483500 233.92609138329129337 1.007140329435344483500 100.78986436130172422
1.267914553968893187630 257.76443482711727029 1.267914553968893187630 108.98217313301009312
1.596209851975103788391 283.47487594254329224 1.596209851975103788391 117.88850086016999796
2.009509145207672986544 311.18631127781134182 2.009509145207672986544 127.44727371053576803
2.529822128134725289783 340.99056570309903691 2.529822128134725289783 137.47871121297117725
3.184857364427998049905 372.90956409423904461 3.184857364427998049905 147.67464397878026716
4.009497869018190385759 406.86508711899466562 4.009497869018190385759 157.62805174064112634
5.009497869018204596614 441.45281843714195702 5.009497869018204596614 166.59588643270245711
6.009497869018190385759 470.79432241673941917 6.009497869018190385759 173.18252274196041185
7.009497869018190385759 496.20249691939397962 7.009497869018190385759 178.01829929519351481
8.009497869018204596614 518.52466099119658338 8.009497869018204596614 181.50819596475886897
9.009497869018190385759 538.35617983232384631 9.009497869018190385759 183.92277113351900653
10.009497869018190385759 556.14005952813420208 10.009497869018190385759 185.48901290772755601
11.009497869018204596614 572.20216218074051540 11.009497869018204596614 186.59800775149966512
12.009497869018190385759 586.79863194584163466 12.009497869018190385759 187.17841778416214993
13.009497869018190385759 600.13144858816667693 13.009497869018190385759 187.33195708055433215
14.009497869018204596614 612.36406313611075802 14.009497869018204596614 187.13388345694016834
15.009497869018190385759 623.63097781326564473 15.009497869018190385759 186.59350037045936688
16.009497869018190385759 634.04469539893216279 16.009497869018190385759 185.73075403688267215
17.009497869018190385759 643.68871696972132668 17.009497869018190385759 184.41620998025413769
18.009497869018204596614 652.63941099813951041 18.009497869018204596614 182.89510658931180842
19.009497869018190385759 660.96017340021523978 19.009497869018190385759 180.89656644252298179
20.009497869018190385759 668.70295010715892658 20.009497869018190385759 178.92976843603926795
21.009497869018204596614 675.91376939977942584 21.009497869018204596614 176.82999156124429874
22.009497869018190385759 682.64342624470612009 22.009497869018190385759 174.62905132167151123
23.009497869018190385759 688.94421912912400785 23.009497869018190385759 172.27276225847009528
24.009497869018204596614 694.85128040357813006 24.009497869018204596614 169.90940549802098758
25.009497869018190385759 700.39639627693918555 25.009497869018190385759 167.41819877733132671
26.009497869018190385759 705.60836740515742349 26.009497869018190385759 164.55346627427644535
27.009497869018204596614 710.51073227767062690 27.009497869018204596614 161.62502174669242549
28.009497869018190385759 715.11027738604559545 28.009497869018190385759 158.57785144783963460
29.009497869018190385759 719.41856743333789836 29.009497869018190385759 155.48998843043145257
30.009497869018190385759 723.45847598777254461 30.009497869018190385759 152.39558818995391221
31.009497869018190385759 727.23965010330061887 31.009497869018190385759 149.21719036238047806
32.009497869018190385759 730.79501282472779167 32.009497869018190385759 146.02584864557337596
33.009497869018190385759 734.15097757100522813 33.009497869018190385759 142.88798742463535518
34.009497869018190385759 737.32075992707564183 34.009497869018190385759 139.72404061448756352
35.009497869018190385759 740.31275766884095901 35.009497869018190385759 136.43316217337005014
36.009497869018190385759 743.13831398557920238 36.009497869018190385759 133.37108346207631371
37.009497869018190385759 745.80399691682112007 37.009497869018190385759 130.33009616430442179
38.009497869018190385759 748.31589277495902479 38.009497869018190385759 127.26255915521717554
39.009497869018190385759 750.67959052401033659 39.009497869018190385759 124.13280681454787668
40.009497869018190385759 752.90870978518182710 40.009497869018190385759 120.87943313244939247
41.009497869018190385759 755.01188351247026276 41.009497869018190385759 117.87262505580915217
42.009497869018190385759 756.99700803290954809 42.009497869018190385759 114.78854579638957034
43.009497869018190385759 758.87179452433986171 43.009497869018190385759 111.80642260726324366
44.009497869018190385759 760.64306750487276076 44.009497869018190385759 108.80119618664929249
46.009497869018190385759 763.89933044023007369 46.009497869018190385759 103.00418130989767462
48.009497869018190385759 766.80977169426546425 48.009497869018190385759 97.46291874768836294
50.009497869018218807469 769.41179132153501996 50.009497869018218807469 92.09837857347342549
52.009497869018190385759 771.74120267429930209 52.009497869018190385759 86.93807558760153142
54.009497869018190385759 773.82738153052275720 54.009497869018190385759 82.02371924747396292
56.009497869018190385759 775.69751140151925028 56.009497869018190385759 77.31302752060776129
58.009497869018190385759 777.37451709369042874 58.009497869018190385759 72.82617634161591980
60.009497869018190385759 778.88008016060200589 60.009497869018190385759 68.55751838110418817
62.009497869018190385759 780.23159683001301801 62.009497869018190385759 64.49070907992526713
64.009497869018190385759 781.44691538904635308 64.009497869018190385759 60.62487740664860070
66.009497869018218807469 782.53937169114942662 66.009497869018218807469 56.99545995595335057
68.009497869018190385759 783.52213800254412490 68.009497869018190385759 53.56448992279130294
70.009497869018190385759 784.40680686662153676 70.009497869018190385759 50.27369790360781820
72.009497869018190385759 785.20287431942176681 72.009497869018190385759 47.21126425402137983
74.009497869018218807469 785.92015670193291044 74.009497869018218807469 44.29311310624847664
76.009497869018190385759 786.56666348737155658 76.009497869018190385759 41.53356104652451108
78.009497869018190385759 787.14946678574767702 78.009497869018190385759 38.91920917767838262
80.009497869018218807469 787.67514276109329785 80.009497869018218807469 36.46541476723011499
82.009497869018190385759 788.14918848162551512 82.009497869018190385759 34.13435277865544037
84.009497869018190385759 788.57653560744142851 84.009497869018190385759 31.86109271860413017
86.009497869018218807469 788.96220001494555163 86.009497869018218807469 29.77950473442534829
88.009497869018190385759 789.31024602970296655 88.009497869018190385759 27.75063031694899962
91.009497869018190385759 789.76965167690195813 91.009497869018190385759 24.94362030069346048
94.009497869018190385759 790.16400398068174127 94.009497869018190385759 22.33273680875140244
97.009497869018190385759 790.50168440188508612 97.009497869018190385759 19.97372619342642963
99.504748934509137825444 790.74534057862092595 99.504748934509137825444 16.97546331504932837
nan nan nan nan

