Time Pressure difference Time.1 Pressure.1 difference.1
(hr) (psi) (hr) (psi)
0.000200000000006639311 0.33697920510315521 0.000200000000006639311 0.27010665168861292
0.000399999999999067768 0.63013707435795030 0.000399999999999067768 0.57577059737618075
0.000600000000019917934 0.89983953254447702 0.000600000000019917934 0.79041022677084227
0.000799999999998135536 1.15278753470838646 0.000799999999998135536 0.98960932563522430
0.001007140329448930061 1.40098674139164570 0.001007140329448930061 1.18256061419894687
0.001267914553963578328 1.69737117750871214 0.001267914553963578328 1.40892155618735759
0.001596209851982166583 2.04981063208423819 0.001596209851982166583 1.67148464234148353
0.002009509145210586212 2.46710566677592169 0.002009509145210586212 1.97440164262984585
0.002529822128153114136 2.95903741031714063 0.002529822128153114136 2.32204508048655311
0.003184857364431081805 3.53641915291536257 0.003184857364431081805 2.71902664633979230
0.004009497869020606231 4.21115450639828648 0.004009497869020606231 3.17023899524935970
0.005047658755856332391 4.99630808649822988 0.005047658755856332391 3.68092392538861946
0.006354625877790454069 5.90619484410567708 0.006354625877790454069 4.25676410255019366
0.007999999999995566213 6.95649267019067263 0.007999999999995566213 4.90399134328625230
0.010071403294347192059 8.16438114535133863 0.010071403294347192059 5.62951527852892752
0.012679145539706837553 9.54871276629259391 0.012679145539706837553 6.44110752439907852
0.015962098519764822413 11.13023561936795858 0.015962098519764822413 7.34768635230428391
0.020095091452077440408 12.93189443998484833 0.020095091452077440408 8.35964486498494352
0.025298221281346400247 14.97920262491315668 0.025298221281346400247 9.48892310745962497
0.031848573644282396344 17.30057399129544038 0.031848573644282396344 10.74832451088191299
0.040094978690177640601 19.92737659615552204 0.040094978690177640601 12.14971985841184043
0.050476587558421215363 22.89343296657835225 0.050476587558421215363 13.70133862071572040
0.063546258777947173257 26.23382101310853542 0.063546258777947173257 15.40521205520772874
0.079999999999998294697 29.98318996914812118 0.079999999999998294697 17.25606805185196180
0.100714032943528764008 34.17404383815301827 0.100714032943528764008 19.24190916935554085
0.126791455396883634421 38.83531264139679706 0.126791455396883634421 21.34716990886762034
0.159620985197506115583 43.99207472741927916 0.159620985197506115583 23.55800776995709356
0.200950914520774404082 49.66654268810390960 0.200950914520774404082 25.86301890179298724
0.252982212813464002465 55.87808838312752613 0.252982212813464002465 28.25862563845838338
0.318485736442795541734 62.64666573859218346 0.318485736442795541734 30.75665793497596567
0.400949786901833249431 69.99626083313458480 0.400949786901833249431 33.36684834094009489
0.504765875584169521062 77.95020156481496088 0.504765875584169521062 36.11755732597098500
0.635462587779429100010 86.54399266602604257 0.635462587779429100010 39.04128610873611649
0.800000000000011368684 95.81385577537002973 0.800000000000011368684 42.18342596522250432
1.007140329435344483500 105.81329741075978745 1.007140329435344483500 45.59092929987853893
1.267914553968893187630 116.59624902460259932 1.267914553968893187630 49.29660915549241906
1.596209851975103788391 128.22601865064572735 1.596209851975103788391 53.32526580964698582
2.009509145207672986544 140.76091089575766091 2.009509145207672986544 57.64904717373767795
2.529822128134725289783 154.24246149560738672 2.529822128134725289783 62.18663198792341262
3.184857364427998049905 168.68058787066513560 3.184857364427998049905 66.79862400535481015
4.009497869018190385759 184.03990856597513925 4.009497869018190385759 71.30091312380402258
5.009497869018204596614 199.68520011549222204 5.009497869018204596614 75.35739162002616354
6.009497869018190385759 212.95743182215127831 6.009497869018190385759 78.33676729636339076
7.009497869018190385759 224.45047524204363754 7.009497869018190385759 80.52416528866694989
8.009497869018204596614 234.54760366330759780 8.009497869018204596614 82.10277275415261045
9.009497869018190385759 243.51812246621008740 9.009497869018190385759 83.19497311086279012
10.009497869018190385759 251.56241945010933136 10.009497869018190385759 83.90344135265432612
11.009497869018204596614 258.82789392100784198 11.009497869018204596614 84.40508014179985707
12.009497869018190385759 265.43040921662367282 12.009497869018190385759 84.66762075470512627
13.009497869018190385759 271.46132814642305675 13.009497869018190385759 84.73707217475542564
14.009497869018204596614 276.99458556810986920 14.009497869018204596614 84.64747625528882224
15.009497869018190385759 282.09102173983228568 15.009497869018190385759 84.40304128906760184
16.009497869018190385759 286.80152576923660490 16.009497869018190385759 84.01278967649645324
17.009497869018190385759 291.16386823677112261 17.009497869018190385759 83.41817348639531815
18.009497869018204596614 295.21259338607433165 18.009497869018204596614 82.73012298058590375
19.009497869018190385759 298.97637750065808859 19.009497869018190385759 81.82611042820666114
20.009497869018190385759 302.47871761856526973 20.009497869018190385759 80.93645600284393993
21.009497869018204596614 305.74043400887228472 21.009497869018204596614 79.98665038845068409
22.009497869018190385759 308.78450308639042987 22.009497869018190385759 78.99108489690561896
23.009497869018190385759 311.63458136308037183 23.009497869018190385759 77.92524947018645776
24.009497869018204596614 314.30656048161847593 24.009497869018204596614 76.85621706639454942
25.009497869018190385759 316.81481850283984159 25.009497869018190385759 75.72935346563397729
26.009497869018190385759 319.17238301317405558 26.009497869018190385759 74.43353053901849137
27.009497869018204596614 321.38990132933884070 27.009497869018204596614 73.10888834149452009
28.009497869018190385759 323.47044322882811684 28.009497869018190385759 71.73054215023775271
29.009497869018190385759 325.41923984835096917 29.009497869018190385759 70.33378915918581242
30.009497869018190385759 327.24663773652514465 30.009497869018190385759 68.93407914386699531
31.009497869018190385759 328.95700060747429916 31.009497869018190385759 67.49637395831042852
32.009497869018190385759 330.56522075436288333 32.009497869018190385759 66.05281377986683822
33.009497869018190385759 332.08324592931450070 33.009497869018190385759 64.63344477899394747
34.009497869018190385759 333.51705402308846260 34.009497869018190385759 63.20227631533830248
35.009497869018190385759 334.87044365581215288 35.009497869018190385759 61.71369204851504975
36.009497869018190385759 336.14854576543956455 36.009497869018190385759 60.32860223892050300
37.009497869018190385759 337.35433131564622045 37.009497869018190385759 58.95305284441434424
38.009497869018190385759 338.49055336736461186 38.009497869018190385759 57.56549404778048284
39.009497869018190385759 339.55974001272988971 39.009497869018190385759 56.14979298901045013
40.009497869018190385759 340.56805190282995000 40.009497869018190385759 54.67817349168739582
41.009497869018190385759 341.51939403741641854 41.009497869018190385759 53.31808460468376865
42.009497869018190385759 342.41733821301698981 42.009497869018190385759 51.92304314528276166
43.009497869018190385759 343.26537247643040018 43.009497869018190385759 50.57412013263122930
44.009497869018190385759 344.06658380594245727 44.009497869018190385759 49.21474668629743121
46.009497869018190385759 345.53951021782370390 46.009497869018190385759 46.59254556447707785
48.009497869018190385759 346.85600887852757523 48.009497869018190385759 44.08603053633753888
50.009497869018218807469 348.03299719590927452 50.009497869018218807469 41.65945348557116290
52.009497869018190385759 349.08667485454282087 52.009497869018190385759 39.32526035925152996
54.009497869018190385759 350.03032958950751663 54.009497869018190385759 37.10231786521251962
56.009497869018190385759 350.87625749377133388 56.009497869018190385759 34.97150029904126711
58.009497869018190385759 351.63482829284691888 58.009497869018190385759 32.94193397134775836
60.009497869018190385759 352.31584934367413098 60.009497869018190385759 31.01106438920974639
62.009497869018190385759 352.92718959413667790 62.009497869018190385759 29.17149831278862493
64.009497869018190385759 353.47692247504528495 64.009497869018190385759 27.42284174282049136
66.009497869018218807469 353.97108027898718774 66.009497869018218807469 25.78112394269291840
68.009497869018190385759 354.41562130208541248 68.009497869018190385759 24.22917114264578586
70.009497869018190385759 354.81578927424749281 70.009497869018190385759 22.74062596761325494
72.009497869018190385759 355.17587959869172209 72.009497869018190385759 21.35537560649191491
74.009497869018218807469 355.50033256423881767 74.009497869018218807469 20.03538947983575724
76.009497869018190385759 355.79277114755871025 76.009497869018190385759 18.78714350141856215
78.009497869018190385759 356.05639432177747494 78.009497869018190385759 17.60457686167881874
80.009497869018218807469 356.29417672557866581 80.009497869018218807469 16.49463621246670542
82.009497869018190385759 356.50860488327731446 82.009497869018190385759 15.44021191109274049
84.009497869018190385759 356.70190956448755060 84.009497869018190385759 14.41193352878915945
86.009497869018218807469 356.87635963292865426 86.009497869018218807469 13.47035541258118663
88.009497869018190385759 357.03379353119271400 88.009497869018190385759 12.55262156392833361
91.009497869018190385759 357.24159945011268746 91.009497869018190385759 11.28290862199591871
94.009497869018190385759 357.41997937070090074 94.009497869018190385759 10.10191085554736290
97.009497869018190385759 357.57272453318915950 97.009497869018190385759 9.03484437160597409
99.504748934509137825444 357.68293910285291304 99.504748934509137825444 7.67862078923726621
nan nan nan nan

