Time Pressure difference Time.1 Pressure.1 difference.1
(hr) (psi) (hr) (psi)
0.000200000000006639311 0.65376750742120404 0.000200000000006639311 0.52402922713968503
0.000399999999999067768 1.22251800169858549 0.000399999999999067768 1.11704254325668151
0.000600000000019917934 1.74576306003980153 0.000600000000019917934 1.53346116309467106
0.000799999999998135536 2.23650308903135286 0.000799999999998135536 1.91992387762701555
0.001007140329448930061 2.71803006232800692 0.001007140329448930061 2.29426532382812187
0.001267914553963578328 3.29304036297661318 0.001267914553963578328 2.73342425880150541
0.001596209851982166583 3.97680203208078487 0.001596209851982166583 3.24281834536911795
0.002009509145210586212 4.78638888657560013 0.002009509145210586212 3.83050236039137459
0.002529822128153114136 5.74077712456155975 0.002529822128153114136 4.50495936069602010
0.003184857364431081805 6.86094542270149876 0.003184857364431081805 5.27513640684517515
0.004009497869020606231 8.16998777171072454 0.004009497869020606231 6.15052565400650586
0.005047658755856332391 9.69325060583024367 0.005047658755856332391 7.14129662384279662
0.006354625877790454069 11.45850611284138765 0.006354625877790454069 8.25847415763353609
0.007999999999995566213 13.49617069691950810 0.007999999999995566213 9.51414849451609612
0.010071403294347192059 15.83957416422501296 0.010071403294347192059 10.92172488954269127
0.012679145539706837553 18.52529191642302919 0.012679145539706837553 12.49628092027011306
0.015962098519764822413 21.59357695575726055 0.015962098519764822413 14.25511877027628849
0.020095091452077440408 25.08894396517721503 0.020095091452077440408 16.21840191781169693
0.025298221281346400247 29.06089104296168202 0.025298221281346400247 18.40929503699294756
0.031848573644282396344 33.56454334261655958 0.031848573644282396344 20.85263784239280582
0.040094978690177640601 38.66075748716950500 0.040094978690177640601 23.57146063439817496
0.050476587558421215363 44.41515197441543705 0.050476587558421215363 26.58172926622326671
0.063546258777947173257 50.89578084981180695 0.063546258777947173257 29.88738454512408538
0.079999999999998294697 58.16986648973157514 0.079999999999998294697 33.47819814191940679
0.100714032943528764008 66.30046934716051510 0.100714032943528764008 37.33089402897696374
0.126791455396883634421 75.34371605428013652 0.126791455396883634421 41.41527385212126688
0.159620985197506115583 85.34826067984855058 0.159620985197506115583 45.70448201650766862
0.200950914520774404082 96.35719748787101935 0.200950914520774404082 50.17639410905704977
0.252982212813464002465 108.40810948710073092 0.252982212813464002465 54.82406916221574988
0.318485736442795541734 121.53970894326046448 0.318485736442795541734 59.67045826640998030
0.400949786901833249431 135.79853083122594626 0.400949786901833249431 64.73444337219576994
0.504765875584169521062 151.22983320115960737 0.504765875584169521062 70.07104613447675945
0.635462587779429100010 167.90249816817862438 0.635462587779429100010 75.74332160351903553
0.800000000000011368684 185.88679870469516686 0.800000000000011368684 81.83933260608250748
1.007140329435344483500 205.28654187748645654 1.007140329435344483500 88.45017068716106223
1.267914553968893187630 226.20635916136740207 1.267914553968893187630 95.63949586158548755
1.596209851975103788391 248.76907337387680741 1.596209851975103788391 103.45542271747628149
2.009509145207672986544 273.08780027090176645 2.009509145207672986544 111.84391590111502524
2.529822128134725289783 299.24312261234581456 2.529822128134725289783 120.64720544764479371
3.184857364427998049905 327.25428101354242472 3.184857364427998049905 129.59485111782677791
4.009497869018190385759 357.05263252779064942 4.009497869018190385759 138.32966409762804005
5.009497869018204596614 387.40579113315538962 5.009497869018204596614 146.19956762645571757
6.009497869018190385759 413.15501752272740532 6.009497869018190385759 151.97980266794471049
7.009497869018190385759 435.45247159561768058 7.009497869018190385759 156.22353554970717937
8.009497869018204596614 455.04173520629308314 8.009497869018204596614 159.28616449617624085
9.009497869018190385759 472.44528304911415262 9.009497869018190385759 161.40512345268629701
10.009497869018190385759 488.05188401581125390 10.009497869018190385759 162.77961039285622746
11.009497869018204596614 502.14750494179003226 11.009497869018204596614 163.75283110154973087
12.009497869018190385759 514.95693027770585104 12.009497869018190385759 164.26218158815728998
13.009497869018190385759 526.65741142456874968 13.009497869018190385759 164.39692308284159594
14.009497869018204596614 537.39238811664301920 14.009497869018204596614 164.22309959445496474
15.009497869018190385759 547.27989548285643195 15.009497869018190385759 163.74887555874892087
16.009497869018190385759 556.41866259775451908 16.009497869018190385759 162.99175517816152592
17.009497869018190385759 564.88196750894235265 17.009497869018190385759 161.83815062753143366
18.009497869018204596614 572.73682890397481060 18.009497869018204596614 160.50327578258298900
19.009497869018190385759 580.03888114280562149 19.009497869018190385759 158.74941671918608677
20.009497869018190385759 586.83371042114220018 20.009497869018190385759 157.02341360882326171
21.009497869018204596614 593.16170978167565409 21.009497869018204596614 155.18071222056858005
22.009497869018190385759 599.06745536801770413 22.009497869018190385759 153.24923288883135797
23.009497869018190385759 604.59684276845553086 23.009497869018190385759 151.18142407542376304
24.009497869018204596614 609.78070308313999703 24.009497869018204596614 149.10741286228196145
25.009497869018190385759 614.64693093836069693 25.009497869018190385759 146.92120434758328429
26.009497869018190385759 619.22080092845135368 26.009497869018190385759 144.40720077714539116
27.009497869018204596614 623.52296972778765394 27.009497869018204596614 141.83728543938710231
28.009497869018190385759 627.55939295840823888 28.009497869018190385759 139.16317991544059396
29.009497869018190385759 631.34021945785445951 29.009497869018190385759 136.45336367866835303
30.009497869018190385759 634.88552238553120333 30.009497869018190385759 133.73781057043618148
31.009497869018190385759 638.20376770747600403 31.009497869018190385759 130.94854369184602660
32.009497869018190385759 641.32384770319572453 32.009497869018190385759 128.14791764317141087
33.009497869018190385759 644.26894199922787720 33.009497869018190385759 125.39422447825477036
34.009497869018190385759 647.05064819768608686 34.009497869018190385759 122.61763938037741184
35.009497869018190385759 649.67633593555285643 35.009497869018190385759 119.72966287924715800
36.009497869018190385759 652.15595965650356902 36.009497869018190385759 117.04247417840154810
37.009497869018190385759 654.49528327560278740 37.009497869018190385759 114.37379467129146349
38.009497869018190385759 656.69964795858550133 38.009497869018190385759 111.68181593154105258
39.009497869018190385759 658.77395841312682023 39.009497869018190385759 108.93523887743968714
40.009497869018190385759 660.73016681148203588 40.009497869018190385759 106.08017543118690185
41.009497869018190385759 662.57584917589679208 41.009497869018190385759 103.44149058635962035
42.009497869018190385759 664.31793508682437732 42.009497869018190385759 100.73499486243908052
43.009497869018190385759 665.96319164332260243 43.009497869018190385759 98.11797273665438013
44.009497869018190385759 667.51760783838835778 44.009497869018190385759 95.48067590585391429
46.009497869018190385759 670.37520680689340224 46.009497869018190385759 90.39338901868589460
48.009497869018190385759 672.92932301020118757 48.009497869018190385759 85.53054271409287423
50.009497869018218807469 675.21277761768351411 50.009497869018218807469 80.82278269204817889
52.009497869018190385759 677.25699935623083547 52.009497869018190385759 76.29425511846525865
54.009497869018190385759 679.08776753005690807 54.009497869018190385759 71.98156296577388957
56.009497869018190385759 680.72893757572580853 56.009497869018190385759 67.84760078677635420
58.009497869018190385759 682.20062761773397142 58.009497869018190385759 63.91007437829657789
60.009497869018190385759 683.52186473907033815 60.009497869018190385759 60.16402781295030877
62.009497869018190385759 684.70791534895533914 62.009497869018190385759 56.59511759443908829
64.009497869018190385759 685.77444257038746400 64.009497869018190385759 53.20257933162901054
66.009497869018218807469 686.73314954952263633 66.009497869018218807469 50.01751112022448353
68.009497869018190385759 687.59559587326077690 68.009497869018190385759 47.00659442757105921
70.009497869018190385759 688.37195481098842720 70.009497869018190385759 44.11869376774555462
72.009497869018190385759 689.07055979994117934 72.009497869018190385759 41.43119358366923421
74.009497869018218807469 689.70002536739730203 74.009497869018218807469 38.87031140819374997
76.009497869018190385759 690.26738038751580007 76.009497869018190385759 36.44861104923973016
78.009497869018190385759 690.77883113253926695 78.009497869018190385759 34.15433403536448509
80.009497869018218807469 691.24014864735192987 80.009497869018218807469 32.00095744526081631
82.009497869018190385759 691.65615699462273369 82.009497869018190385759 29.95528715809108533
84.009497869018190385759 692.03118405176405759 84.009497869018190385759 27.96034211473764586
86.009497869018218807469 692.36963160190089184 86.009497869018218807469 26.13360275292093959
88.009497869018190385759 692.67506637559915816 88.009497869018190385759 24.35312324076178925
91.009497869018190385759 693.07822703234671735 91.009497869018190385759 21.88977519845902364
94.009497869018190385759 693.42429882043006728 94.009497869018190385759 19.59854192842763254
97.009497869018190385759 693.72063705922448662 97.009497869018190385759 17.52834476226861682
99.504748934509137825444 693.93446243301411869 99.504748934509137825444 14.89715892787973672
nan nan nan nan

