Time Pressure difference Time.1 Pressure.1 difference.1
(hr) (psi) (hr) (psi)
0.000200000000006639311 0.33210553891364675 0.000200000000006639311 0.26620015052782720
0.000399999999999067768 0.62102352162963292 0.000399999999999067768 0.56744333667032698
0.000600000000019917934 0.88682532442916429 0.000600000000019917934 0.77897867390432174
0.000799999999998135536 1.13611498771880237 0.000799999999998135536 0.97529679406611991
0.001007140329448930061 1.38072453645416315 0.001007140329448930061 1.16545746482003643
0.001267914553963578328 1.67282242080920573 0.001267914553963578328 1.38854459153175513
0.001596209851982166583 2.02016461054582974 0.001596209851982166583 1.64731027767951987
0.002009509145210586212 2.43142438647131121 0.002009509145210586212 1.94584624697197595
0.002529822128153114136 2.91624141471338039 0.002529822128153114136 2.28846178386794641
0.003184857364431081805 3.48527259491865316 0.003184857364431081805 2.67970188079355554
0.004009497869020606231 4.15024937923963311 0.004009497869020606231 3.12438843126848065
0.005047658755856332391 4.92404743235466036 0.005047658755856332391 3.62768742233547759
0.006354625877790454069 5.82077467074051302 0.006354625877790454069 4.19519933247198828
0.007999999999995566213 6.85588223901022964 0.007999999999995566213 4.83306584865194644
0.010071403294347192059 8.04630125275328112 0.010071403294347192059 5.54809666912871524
0.012679145539706837553 9.41061154859827909 0.012679145539706837553 6.34795101061644651
0.015962098519764822413 10.96926113726966179 0.015962098519764822413 7.24141816125856153
0.020095091452077440408 12.74486290882804163 0.020095091452077440408 8.23874091032606870
0.025298221281346400247 14.76256126463548668 0.025298221281346400247 9.35168661623603370
0.031848573644282396344 17.05035907819818775 0.031848573644282396344 10.59287353655097874
0.040094978690177640601 19.63917073629377086 0.040094978690177640601 11.97400076955051063
0.050476587558421215363 22.56232959722701281 0.050476587558421215363 13.50317876463098798
0.063546258777947173257 25.85440624639002394 0.063546258777947173257 15.18240940151670770
0.079999999999998294697 29.54954879190837502 0.079999999999998294697 17.00649681969707672
0.100714032943528764008 33.67979113801443702 0.100714032943528764008 18.96361709459213429
0.126791455396883634421 38.27364489658319968 0.126791455396883634421 21.03842984820217765
0.159620985197506115583 43.35582571276651720 0.159620985197506115583 23.21729278154862186
0.200950914520774404082 48.94822492195364561 0.200950914520774404082 25.48896697552738289
0.252982212813464002465 55.06993421229717001 0.252982212813464002465 27.84992650732365504
0.318485736442795541734 61.74061892005882868 0.318485736442795541734 30.31183023756928563
0.400949786901833249431 68.98391821777931909 0.400949786901833249431 32.88426995584385537
0.504765875584169521062 76.82282261656351352 0.504765875584169521062 35.59519595968627925
0.635462587779429100010 85.29232335060831360 0.635462587779429100010 38.47663940881638212
0.800000000000011368684 94.42811819184196054 0.800000000000011368684 41.57333509382465309
1.007140329435344483500 104.28293980357938153 1.007140329435344483500 44.93155635545880955
1.267914553968893187630 114.90993963788312726 1.267914553968893187630 48.58364166770636672
1.596209851975103788391 126.37151011644220944 1.596209851975103788391 52.55403262644961870
2.009509145207672986544 138.72511259767853176 2.009509145207672986544 56.81527996254725821
2.529822128134725289783 152.01168209381143015 2.529822128134725289783 61.28723855008154686
3.184857364427998049905 166.24099259154394304 3.184857364427998049905 65.83252820362447721
4.009497869018190385759 181.37817435117798937 4.009497869018190385759 70.26970157036058140
5.009497869018204596614 196.79719102291278432 5.009497869018204596614 74.26751198915800956
6.009497869018190385759 209.87746896521935014 6.009497869018190385759 77.20379752141599283
7.009497869018190385759 221.20429068275785767 7.009497869018190385759 79.35955959234327395
8.009497869018204596614 231.15538625495398151 8.009497869018204596614 80.91533595812147439
9.009497869018190385759 239.99616614955002092 9.009497869018190385759 81.99174002868090838
10.009497869018190385759 247.92411999525236865 10.009497869018190385759 82.68996182895891423
11.009497869018204596614 255.08451528991889745 11.009497869018204596614 83.18434551164985180
12.009497869018190385759 261.59153966183782813 12.009497869018190385759 83.44308904957509299
13.009497869018190385759 267.53523455752855398 13.009497869018190385759 83.51153600693871226
14.009497869018204596614 272.98846552890171324 14.009497869018204596614 83.42323589622472468
15.009497869018190385759 278.01119291301654357 15.009497869018190385759 83.18233614645713203
16.009497869018190385759 282.65356981802864311 16.009497869018190385759 82.79772866877853232
17.009497869018190385759 286.95282055566082136 17.009497869018190385759 82.21171229960860671
18.009497869018204596614 290.94298976272204982 18.009497869018204596614 81.53361293747825300
19.009497869018190385759 294.65233898308656535 19.009497869018190385759 80.64267494680699144
20.009497869018190385759 298.10402542160255734 20.009497869018190385759 79.76588742429041190
21.009497869018204596614 301.31856822775216642 21.009497869018204596614 78.82981866795657311
22.009497869018190385759 304.31861151282691935 22.009497869018190385759 77.84865185087599571
23.009497869018190385759 307.12746964915152148 23.009497869018190385759 76.79823139933665743
24.009497869018204596614 309.76080444159509852 24.009497869018204596614 75.74466020799627586
25.009497869018190385759 312.23278600383179082 25.009497869018190385759 74.63409422129630855
26.009497869018190385759 314.55625350678513996 26.009497869018190385759 73.35701253535501110
27.009497869018204596614 316.74170027705508801 27.009497869018204596614 72.05152838614232280
28.009497869018190385759 318.79215169452686496 28.009497869018190385759 70.69311695385000860
29.009497869018190385759 320.71276323897399152 29.009497869018190385759 69.31656493580916845
30.009497869018190385759 322.51373181884815722 30.009497869018190385759 67.93709866038132361
31.009497869018190385759 324.19935803670500718 31.009497869018190385759 66.52018673164063500
32.009497869018190385759 325.78431880130392528 32.009497869018190385759 65.09750448966214265
33.009497869018190385759 327.28038906670042252 33.009497869018190385759 63.69866355285145687
34.009497869018190385759 328.69346026655620108 34.009497869018190385759 62.28819380664539551
35.009497869018190385759 330.02727608227769451 35.009497869018190385759 60.82113865111916340
36.009497869018190385759 331.28689324403853789 36.009497869018190385759 59.45608113215925528
37.009497869018190385759 332.47523974703148042 37.009497869018190385759 58.10042604707777514
38.009497869018190385759 333.59502883519201077 38.009497869018190385759 56.73293524956878287
39.009497869018190385759 334.64875203733919307 39.009497869018190385759 55.33770920611154054
40.009497869018190385759 335.64248090423524218 40.009497869018190385759 53.88737346184893795
41.009497869018190385759 336.58006395836287084 41.009497869018190385759 52.54695528188875642
42.009497869018190385759 337.46502133803539891 42.009497869018190385759 51.17209004194189959
43.009497869018190385759 338.30079064309353498 43.009497869018190385759 49.84267624641548622
44.009497869018190385759 339.09041420544326684 44.009497869018190385759 48.50296315984272155
46.009497869018190385759 340.54203796260725312 46.009497869018190385759 45.91868643441232933
48.009497869018190385759 341.83949635342486317 48.009497869018190385759 43.44842265667976733
50.009497869018218807469 342.99946211249738326 50.009497869018218807469 41.05694072854843313
52.009497869018190385759 344.03790063143998168 52.009497869018190385759 38.75650659372516316
54.009497869018190385759 344.96790746734518507 54.009497869018190385759 36.56571409443465370
56.009497869018190385759 345.80160087712590666 56.009497869018190385759 34.46571413769149927
58.009497869018190385759 346.54920061092553851 58.009497869018190385759 32.46550104201008224
60.009497869018190385759 347.22037218374498480 60.009497869018190385759 30.56255725961373670
62.009497869018190385759 347.82287073637030517 62.009497869018190385759 28.74959647768631399
64.009497869018190385759 348.36465293511690788 64.009497869018190385759 27.02623039530035953
66.009497869018218807469 348.85166382867123502 66.009497869018218807469 25.40825644765396873
68.009497869018190385759 349.28977553945196632 68.009497869018190385759 23.87874924595463000
70.009497869018190385759 349.68415595829765152 70.009497869018190385759 22.41173261684198792
72.009497869018190385759 350.03903836482635370 72.009497869018190385759 21.04651686838149516
74.009497869018218807469 350.35879882880561809 74.009497869018218807469 19.74562145016871284
76.009497869018190385759 350.64700792848248057 76.009497869018190385759 18.51542861606746726
78.009497869018190385759 350.90681837084264316 78.009497869018190385759 17.34996521285288651
80.009497869018218807469 351.14116177293595911 80.009497869018218807469 16.25607742426987201
82.009497869018190385759 351.35248869694891027 82.009497869018190385759 15.21690306113891999
84.009497869018190385759 351.54299764929862704 84.009497869018190385759 14.20349647362072076
86.009497869018218807469 351.71492467955988559 86.009497869018218807469 13.27553622272980505
88.009497869018190385759 351.87008164127877308 88.009497869018190385759 12.37107538428474030
91.009497869018190385759 352.07488210269366391 91.009497869018190385759 11.11972605928110269
94.009497869018190385759 352.25068214839740222 94.009497869018190385759 9.95580883904151293
97.009497869018190385759 352.40121818663476461 97.009497869018190385759 8.90417513482655032
99.504748934509137825444 352.50983874392733242 99.504748934509137825444 7.56756635633507369
nan nan nan nan

