Time Pressure difference Time.1 Pressure.1 difference.1
(hr) (psi) (hr) (psi)
0.000200000000006639311 0.42749014862259771 0.000200000000006639311 0.34265595896034778
0.000399999999999067768 0.79938876788384605 0.000399999999999067768 0.73041972477060957
0.000600000000019917934 1.14153196897171250 0.000600000000019917934 1.00271049429193626
0.000799999999998135536 1.46242055022923378 0.000799999999998135536 1.25541348334716463
0.001007140329448930061 1.77728483308774865 0.001007140329448930061 1.50019053123585411
0.001267914553963578328 2.15327665907096932 0.001267914553963578328 1.78735089979139983
0.001596209851982166583 2.60037960351182251 0.001596209851982166583 2.12043712892080771
0.002009509145210586212 3.12975801529011566 0.002009509145210586212 2.50471613341885391
0.002529822128153114136 3.75382018581554622 0.002529822128153114136 2.94573487483211549
0.003184857364431081805 4.48628380142568695 0.003184857364431081805 3.44934372076990137
0.004009497869020606231 5.34224972505898332 0.004009497869020606231 4.02174946917997289
0.005047658755856332391 6.33829166345023332 0.005047658755856332391 4.66960183923266925
0.006354625877790454069 7.49256949231588010 0.006354625877790454069 5.40010983257400579
0.007999999999995566213 8.82497210639891172 0.007999999999995566213 6.22117910078049263
0.010071403294347192059 10.35729343645810197 0.010071403294347192059 7.14157516739000275
0.012679145539706837553 12.11344966632985987 0.012679145539706837553 8.17115706607651759
0.015962098519764822413 14.11976171547918746 0.015962098519764822413 9.32123847172485753
0.020095091452077440408 16.40533716146838117 0.020095091452077440408 10.60500402293544298
0.025298221281346400247 19.00254217292702208 0.025298221281346400247 12.03760080161200108
0.031848573644282396344 21.94742237738718771 0.031848573644282396344 13.63527117702788338
0.040094978690177640601 25.27977113644523044 0.040094978690177640601 15.41307436583650770
0.050476587558421215363 29.04249554024609026 0.050476587558421215363 17.38145023371787801
0.063546258777947173257 33.28009525216661757 0.063546258777947173257 19.54297562375525743
0.079999999999998294697 38.03652611788625393 0.079999999999998294697 21.89096236329980272
0.100714032943528764008 43.35302255501229496 0.100714032943528764008 24.41019055781880454
0.126791455396883634421 49.26628504507775119 0.126791455396883634421 27.08091389265437599
0.159620985197506115583 55.80812785668478426 0.159620985197506115583 29.88557184040011450
0.200950914520774404082 63.00672977375165829 0.200950914520774404082 32.80969753243986275
0.252982212813464002465 70.88666584140558768 0.252982212813464002465 35.84875235953191464
0.318485736442795541734 79.47324951135453830 0.318485736442795541734 39.01774374395711220
0.400949786901833249431 88.79690940401782484 0.400949786901833249431 42.32901834987028877
0.504765875584169521062 98.88723917519915574 0.504765875584169521062 45.81855412840120323
0.635462587779429100010 109.78927995235535775 0.635462587779429100010 49.52758196438838212
0.800000000000011368684 121.54898232660578117 0.800000000000011368684 53.51368500546821849
1.007140329435344483500 134.23422440125312960 1.007140329435344483500 57.83642683910211701
1.267914553968893187630 147.91342334939253078 1.267914553968893187630 62.53743392866187634
1.596209851975103788391 162.66689142871175022 1.596209851975103788391 67.64816778331250191
2.009509145207672986544 178.56859357437025437 2.009509145207672986544 73.13329538155979037
2.529822128134725289783 195.67122181467553332 2.529822128134725289783 78.88965297641523478
3.184857364427998049905 213.98735734005865083 3.184857364427998049905 84.74040318034680297
4.009497869018190385759 233.47211541220818276 4.009497869018190385759 90.45198483061088268
5.009497869018204596614 253.31965469196740059 5.009497869018204596614 95.59801333614889529
6.009497869018190385759 270.15674202231593881 6.009497869018190385759 99.37763454538661279
7.009497869018190385759 284.73675991449334788 7.009497869018190385759 102.15255679182131132
8.009497869018204596614 297.54592696130345075 8.009497869018204596614 104.15517039473078853
9.009497869018190385759 308.92588263275411009 9.009497869018190385759 105.54073035138380021
10.009497869018190385759 319.13083789745269314 10.009497869018190385759 106.43948964985486327
11.009497869018204596614 328.34778278408845154 11.009497869018204596614 107.07586613029981493
12.009497869018190385759 336.72370094836145427 12.009497869018190385759 107.40892384997717102
13.009497869018190385759 344.37449479732185864 13.009497869018190385759 107.49702957706576001
14.009497869018204596614 351.39395772483368319 14.009497869018204596614 107.38336863790770792
15.009497869018190385759 357.85927138069632747 15.009497869018190385759 107.07327965183370111
16.009497869018190385759 363.83499343452746189 16.009497869018190385759 106.57820839125790258
17.009497869018190385759 369.36903945739152277 17.009497869018190385759 105.82388124100563687
18.009497869018204596614 374.50523210547447661 18.009497869018204596614 104.95102378115649344
19.009497869018190385759 379.27994996984313048 19.009497869018190385759 103.80419793991507049
20.009497869018190385759 383.72300127644444956 20.009497869018190385759 102.67558674740946856
21.009497869018204596614 387.86079851538750063 21.009497869018204596614 101.47066805477008700
22.009497869018190385759 391.72248945256967545 22.009497869018190385759 100.20769860888439950
23.009497869018190385759 395.33808462175898057 23.009497869018190385759 98.85558507168283882
24.009497869018204596614 398.72774408205322061 24.009497869018204596614 97.49941586521953241
25.009497869018190385759 401.90970777013143334 25.009497869018190385759 96.06988228904806704
26.009497869018190385759 404.90050241753897353 26.009497869018190385759 94.42600774991188928
27.009497869018204596614 407.71363515746708117 27.009497869018204596614 92.74557322660668035
28.009497869018190385759 410.35300029442242931 28.009497869018190385759 90.99701008315284412
29.009497869018190385759 412.82523402249483979 29.009497869018190385759 89.22509616475225869
30.009497869018190385759 415.14346192195546337 30.009497869018190385759 87.44943098002961790
31.009497869018190385759 417.31321977890337394 31.009497869018190385759 85.62556531074916677
32.009497869018190385759 419.35339988260085420 32.009497869018190385759 83.79427202652527740
33.009497869018190385759 421.27915909214686963 33.009497869018190385759 81.99366755021131326
34.009497869018190385759 423.09808093011633900 34.009497869018190385759 80.17809433392089602
35.009497869018190385759 424.81498430716663961 35.009497869018190385759 78.28968371443851026
36.009497869018190385759 426.43637830574357395 36.009497869018190385759 76.53256565020079449
37.009497869018190385759 427.96603187563380288 37.009497869018190385759 74.78755050923638237
38.009497869018190385759 429.40743753628487411 38.009497869018190385759 73.02730030028349972
39.009497869018190385759 430.76380241284334716 39.009497869018190385759 71.23134895713309334
40.009497869018190385759 432.04294187673048100 40.009497869018190385759 69.36445976011582104
41.009497869018190385759 433.24980979126797820 41.009497869018190385759 67.63905774230543955
42.009497869018190385759 434.38893731981909241 42.009497869018190385759 65.86931506447027118
43.009497869018190385759 435.46474938125669496 43.009497869018190385759 64.15807801949497957
44.009497869018190385759 436.48116210092695155 44.009497869018190385759 62.43358360617071412
46.009497869018190385759 438.34970924327217290 46.009497869018190385759 59.10707226567959793
48.009497869018190385759 440.01981291614856673 48.009497869018190385759 55.92731972998191736
50.009497869018218807469 441.51293445927331049 50.009497869018218807469 52.84897611599316036
52.009497869018190385759 442.84962471216800850 52.009497869018190385759 49.88783029045544737
54.009497869018190385759 444.04674042966450997 54.009497869018190385759 47.06781646537291408
56.009497869018190385759 445.11988037432979581 56.009497869018190385759 44.36467186696557263
58.009497869018190385759 446.08219952852891765 58.009497869018190385759 41.78997408761885168
60.009497869018190385759 446.94613945664451649 60.009497869018190385759 39.34048251027847698
62.009497869018190385759 447.72168266694200156 62.009497869018190385759 37.00681810754590373
64.009497869018190385759 448.41907107371446273 64.009497869018190385759 34.78848105390864021
66.009497869018218807469 449.04595721342593606 66.009497869018218807469 32.70580599341622019
68.009497869018190385759 449.60989975099266758 68.009497869018190385759 30.73700636691014765
70.009497869018190385759 450.11755085617346595 70.009497869018190385759 28.84864533907962780
72.009497869018190385759 450.57435965619151830 72.009497869018190385759 27.09132359997114747
74.009497869018218807469 450.98595907942689109 74.009497869018218807469 25.41679574508090056
76.009497869018190385759 451.35694521611787877 76.009497869018190385759 23.83327708651032495
78.009497869018190385759 451.69137626770941552 78.009497869018190385759 22.33307891130329637
80.009497869018218807469 451.99302584608534517 80.009497869018218807469 20.92501370755073964
82.009497869018190385759 452.26504834366176055 82.009497869018190385759 19.58737626737798010
84.009497869018190385759 452.51027370370934477 84.009497869018190385759 18.28290741048872547
86.009497869018218807469 452.73158019549214259 86.009497869018218807469 17.08842608124968621
88.009497869018190385759 452.93130005816601624 88.009497869018190385759 15.92419347159503396
91.009497869018190385759 453.19492161646525119 91.009497869018190385759 14.31344192955680761
94.009497869018190385759 453.42121349919500517 94.009497869018190385759 12.81523401922743766
97.009497869018190385759 453.61498525491350620 97.009497869018190385759 11.46155876893815950
99.504748934509137825444 453.75480291147033540 99.504748934509137825444 9.74106025742082871
nan nan nan nan

