Time Pressure difference Time.1 Pressure.1 difference.1
(hr) (psi) (hr) (psi)
0.000200000000006639311 0.63148789055487975 0.000200000000006639311 0.50617093611895025
0.000399999999999067768 1.18085604636913422 0.000399999999999067768 1.07897506574420654
0.000600000000019917934 1.68626953722694339 0.000600000000019917934 1.48120263570486332
0.000799999999998135536 2.16028573136468305 0.000799999999998135536 1.85449516188253782
0.001007140329448930061 2.62540283975665778 0.001007140329448930061 2.21607949809596061
0.001267914553963578328 3.18081747520744207 0.001267914553963578328 2.64027242037589494
0.001596209851982166583 3.84127736219091753 0.001596209851982166583 3.13230696405728404
0.002009509145210586212 4.62327446232595296 0.002009509145210586212 3.69996340881254149
0.002529822128153114136 5.54513828751579840 0.002529822128153114136 4.35143571901095783
0.003184857364431081805 6.62713258614511158 0.003184857364431081805 5.09536605006237853
0.004009497869020606231 7.89156433327116957 0.004009497869020606231 5.94092307580820123
0.005047658755856332391 9.36291618688821181 0.005047658755856332391 6.89792975274272191
0.006354625877790454069 11.06801389174349204 0.006354625877790454069 7.97703520870459926
0.007999999999995566213 13.03623729723748070 0.007999999999995566213 9.18991766190212722
0.010071403294347192059 15.29978036949104059 0.010071403294347192059 10.54952553228458179
0.012679145539706837553 17.89397206410616192 0.012679145539706837553 12.07042257154951237
0.015962098519764822413 20.85769360902218850 0.015962098519764822413 13.76932132549583798
0.020095091452077440408 24.23394267988896189 0.020095091452077440408 15.66569812508541837
0.025298221281346400247 28.07053053883519311 0.025298221281346400247 17.78192821997082262
0.031848573644282396344 32.42070373988628518 0.031848573644282396344 20.14200481687995037
0.040094978690177640601 37.34324498494434152 0.040094978690177640601 22.76817337103210548
0.050476587558421215363 42.90153657166646184 0.050476587558421215363 25.67585563840735219
0.063546258777947173257 49.16131334481289628 0.063546258777947173257 28.86885812825084585
0.079999999999998294697 56.18750682234988858 0.079999999999998294697 32.33730108063993924
0.100714032943528764008 64.04102843224129060 0.100714032943528764008 36.05870168720139901
0.126791455396883634421 72.77609207798944624 0.126791455396883634421 40.00389071765068394
0.159620985197506115583 82.43969375572164893 0.159620985197506115583 44.14692778378323368
0.200950914520774404082 93.07345912832695944 0.200950914520774404082 48.46644244612858898
0.252982212813464002465 104.71369042044766218 0.252982212813464002465 52.95573027702842239
0.318485736442795541734 117.39778062996509789 0.318485736442795541734 57.63696022112231532
0.400949786901833249431 131.17067887531626980 0.400949786901833249431 62.52837075461295058
0.504765875584169521062 146.07610086629580337 0.504765875584169521062 67.68310846003240044
0.635462587779429100010 162.18058129769758580 0.635462587779429100010 73.16207954674310088
0.800000000000011368684 179.55199832285254047 0.800000000000011368684 79.05034576540663238
1.007140329435344483500 198.29062138751888256 1.007140329435344483500 85.43589436981370966
1.267914553968893187630 218.49751625064988048 1.267914553968893187630 92.38021591742069916
1.596209851975103788391 240.29132007466051846 1.596209851975103788391 99.92978530857401154
2.009509145207672986544 263.78129376539709483 2.009509145207672986544 108.03240864995882475
2.529822128134725289783 289.04527391842128736 2.529822128134725289783 116.53569258893911353
3.184857364427998049905 316.10184545184557692 3.184857364427998049905 125.17841316705954569
4.009497869018190385759 344.88470468871793173 4.009497869018190385759 133.61555413902942746
5.009497869018204596614 374.20346385279225387 5.009497869018204596614 141.21726074248704208
6.009497869018190385759 399.07518731960993819 6.009497869018190385759 146.80051226818511623
7.009497869018190385759 420.61277075316854734 7.009497869018190385759 150.89962379508457957
8.009497869018204596614 439.53445562524791512 8.009497869018204596614 153.85788200003392490
9.009497869018190385759 456.34491131581103218 9.009497869018190385759 155.90462936271191552
10.009497869018190385759 471.41965793646517113 10.009497869018190385759 157.23227542739147111
11.009497869018204596614 485.03491691395481666 11.009497869018204596614 158.17232993514974737
12.009497869018190385759 497.40781231297034992 12.009497869018190385759 158.66432236470566863
13.009497869018190385759 508.70955501819372557 13.009497869018190385759 158.79447202996522037
14.009497869018204596614 519.07869650883412760 14.009497869018204596614 158.62657223873338808
15.009497869018190385759 528.62924941741300700 15.009497869018190385759 158.16850919252959784
16.009497869018190385759 537.45657824937518399 16.009497869018190385759 157.43719057145099782
17.009497869018190385759 545.63146382386662481 17.009497869018190385759 156.32289948793504664
18.009497869018204596614 553.21864091150712284 18.009497869018204596614 155.03351558551946709
19.009497869018190385759 560.27184791962167765 19.009497869018190385759 153.33942594707323792
20.009497869018190385759 566.83511752074116430 20.009497869018190385759 151.67224296400712547
21.009497869018204596614 572.94746621084118487 21.009497869018204596614 149.89233864116690143
22.009497869018190385759 578.65195103172743529 22.009497869018190385759 148.02668182126734564
23.009497869018190385759 583.99290350478077016 23.009497869018190385759 146.02934146582464336
24.009497869018204596614 589.00010404303304767 24.009497869018204596614 144.02601008103275149
25.009497869018190385759 593.70049665718113374 25.009497869018190385759 141.91430494489677017
26.009497869018190385759 598.11849461353074275 26.009497869018190385759 139.48597561754087337
27.009497869018204596614 602.27405063163291743 27.009497869018204596614 137.00363992920566147
28.009497869018190385759 606.17291737303116861 28.009497869018190385759 134.42066473195379217
29.009497869018190385759 609.82489781498827597 29.009497869018190385759 131.80319580037507876
30.009497869018190385759 613.24938104757904966 30.009497869018190385759 129.18018550307306214
31.009497869018190385759 616.45454452681656221 31.009497869018190385759 126.48597351278418444
32.009497869018190385759 619.46829591778327995 32.009497869018190385759 123.78078945937853916
33.009497869018190385759 622.31302491299220492 33.009497869018190385759 121.12093887303201711
34.009497869018190385759 624.99993388210998546 34.009497869018190385759 118.43897648349555141
35.009497869018190385759 627.53614131368101425 35.009497869018190385759 115.64941877686599980
36.009497869018190385759 629.93126241581342128 36.009497869018190385759 113.05380626177870340
37.009497869018190385759 632.19086467622128112 37.009497869018190385759 110.47607216918142115
38.009497869018190385759 634.32010724008205216 38.009497869018190385759 107.87583285400185673
39.009497869018190385759 636.32372766848357060 39.009497869018190385759 105.22285586990182082
40.009497869018190385759 638.21327081790650482 40.009497869018190385759 102.46508958049682292
41.009497869018190385759 639.99605452879484346 41.009497869018190385759 99.91632796786812776
42.009497869018190385759 641.67877222976539997 42.009497869018190385759 97.30206639002368263
43.009497869018190385759 643.26796040521139730 43.009497869018190385759 94.77422925681099741
44.009497869018190385759 644.76940395039207488 44.009497869018190385759 92.22680835634662344
46.009497869018190385759 647.52961935447535780 46.009497869018190385759 87.31289013838990343
48.009497869018190385759 649.99669432401753966 48.009497869018190385759 82.61576383565733295
50.009497869018218807469 652.20233152208618321 50.009497869018218807469 78.06843865994429166
52.009497869018190385759 654.17688862204624911 52.009497869018190385759 73.69423790463045520
54.009497869018190385759 655.94526640017204500 54.009497869018190385759 69.52851715650363928
56.009497869018190385759 657.53050732820383928 56.009497869018190385759 65.53543547774881972
58.009497869018190385759 658.95204392895072942 58.009497869018190385759 61.73209527275292885
60.009497869018190385759 660.22825486510839710 60.009497869018190385759 58.11370950622569609
62.009497869018190385759 661.37388628488020004 62.009497869018190385759 54.66642349111422305
64.009497869018190385759 662.40406753071511048 64.009497869018190385759 51.38949888582269665
66.009497869018218807469 663.33010291950699866 66.009497869018218807469 48.31297400004643805
68.009497869018190385759 664.16315810122205221 68.009497869018190385759 45.40466575698291507
70.009497869018190385759 664.91305965236051634 70.009497869018190385759 42.61518130707690943
72.009497869018190385759 665.58785701655665434 72.009497869018190385759 40.01926792373588171
74.009497869018218807469 666.19587114827402274 74.009497869018218807469 37.54565755828725315
76.009497869018190385759 666.74389138602430194 76.009497869018190385759 35.20648585906329942
78.009497869018190385759 667.23791249969451655 78.009497869018190385759 32.99039506930308363
80.009497869018218807469 667.68350886384257592 80.009497869018218807469 30.91040298493244265
82.009497869018190385759 668.08534014283577562 82.009497869018190385759 28.93444670115933093
84.009497869018190385759 668.44758672518639742 84.009497869018190385759 27.00748700539621439
86.009497869018218807469 668.77450038650067654 86.009497869018218807469 25.24300074217176615
88.009497869018190385759 669.06952630742102883 88.009497869018190385759 23.52319784810536873
91.009497869018190385759 669.45894772985991494 91.009497869018190385759 21.14379776890557494
94.009497869018190385759 669.79322580418534017 94.009497869018190385759 18.93064699582945920
97.009497869018190385759 670.07946518926155477 97.009497869018190385759 16.93099967984838727
99.504748934509137825444 670.28600364935437028 99.504748934509137825444 14.38948152032686068
nan nan nan nan

