Time Pressure difference Time.1 Pressure.1 difference.1
(hr) (psi) (hr) (psi)
0.000200000000006639311 0.73035369039919384 0.000200000000006639311 0.58541710252346069
0.000399999999999067768 1.36573097314357428 0.000399999999999067768 1.24789949720581328
0.000600000000019917934 1.95027204470900073 0.000600000000019917934 1.71309985099713535
0.000799999999998135536 2.49850025601053183 0.000799999999998135536 2.14483508799865774
0.001007140329448930061 3.03643613991701677 0.001007140329448930061 2.56302909978242832
0.001267914553963578328 3.67880653968313842 0.001267914553963578328 3.05363370338954132
0.001596209851982166583 4.44266808482720243 0.001596209851982166583 3.62270121862854566
0.002009509145210586212 5.34709471993376440 0.002009509145210586212 4.27923000644361196
0.002529822128153114136 6.41328562690636428 0.002529822128153114136 5.03269687898841855
0.003184857364431081805 7.66467704836408181 0.003184857364431081805 5.89309700828603678
0.004009497869020606231 9.12706834134669975 0.004009497869020606231 6.87103451656317787
0.005047658755856332391 10.82877517094347652 0.005047658755856332391 7.97787024324930094
0.006354625877790454069 12.80082312286540436 0.006354625877790454069 9.22592054457676269
0.007999999999995566213 15.07719175832647984 0.007999999999995566213 10.62869198162660744
0.010071403294347192059 17.69511533362304334 0.010071403294347192059 12.20116018011744785
0.012679145539706837553 20.69545390876225355 0.012679145539706837553 13.96016899399717381
0.015962098519764822413 24.12317596015907029 0.015962098519764822413 15.92504748670907766
0.020095091452077440408 28.02801088335559143 0.020095091452077440408 18.11832120530827339
0.025298221281346400247 32.46525527589648874 0.025298221281346400247 20.56586847050649780
0.031848573644282396344 37.49649197700188807 0.031848573644282396344 23.29543886759324067
0.040094978690177640601 43.18970671356848356 0.040094978690177640601 26.33276060221905013
0.050476587558421215363 49.61820492136506289 0.050476587558421215363 29.69566986184047863
0.063546258777947173257 56.85801289824556903 0.063546258777947173257 33.38856910312584603
0.079999999999998294697 64.98422784635614846 0.079999999999998294697 37.40003179006757961
0.100714032943528764008 74.06729749219528003 0.100714032943528764008 41.70405520383049947
0.126791455396883634421 84.16992347277940212 0.126791455396883634421 46.26690337686390819
0.159620985197506115583 95.34645948153475103 0.159620985197506115583 51.05857469149791683
0.200950914520774404082 107.64504809880372704 0.200950914520774404082 56.05435295037364085
0.252982212813464002465 121.10767502872060675 0.252982212813464002465 61.24648408004720324
0.318485736442795541734 135.77758752021321698 0.318485736442795541734 66.66060779708632822
0.400949786901833249431 151.70677192966564917 0.400949786901833249431 72.31781799513670705
0.504765875584169521062 168.94578810225391408 0.504765875584169521062 78.27958189037924797
0.635462587779429100010 187.57158741045728334 0.635462587779429100010 84.61634117368633667
0.800000000000011368684 207.66267501727926970 0.800000000000011368684 91.42647487090579261
1.007140329435344483500 229.33501856175004718 1.007140329435344483500 98.81174552804253608
1.267914553968893187630 252.70550666695893938 1.267914553968893187630 106.84327066965194319
1.596209851975103788391 277.91135033993259640 1.596209851975103788391 115.57480131057788242
2.009509145207672986544 305.07891638357398278 2.009509145207672986544 124.94597207696450880
2.529822128134725289783 334.29822749771108192 2.529822128134725289783 134.78053089944555154
3.184857364427998049905 365.59077825687546692 3.184857364427998049905 144.77635657358925414
4.009497869018190385759 398.87988447460321595 4.009497869018190385759 154.53441708031076018
5.009497869018204596614 432.78879115940361544 5.009497869018204596614 163.32624754009805201
6.009497869018190385759 461.55443384594360623 6.009497869018190385759 169.78361341711817545
7.009497869018190385759 486.46394324153669686 7.009497869018190385759 174.52448220622241593
8.009497869018204596614 508.34800876613570608 8.009497869018204596614 177.94588557666546080
9.009497869018190385759 527.79031088234376057 9.009497869018190385759 180.31307188697329025
10.009497869018190385759 545.22516116356348448 10.009497869018190385759 181.84857433664132031
11.009497869018204596614 560.97202628747356812 11.009497869018204596614 182.93580386104969193
12.009497869018190385759 575.28202328148393008 12.009497869018190385759 183.50482266877205006
13.009497869018190385759 588.35316782148311177 13.009497869018190385759 183.65534857710420624
14.009497869018204596614 600.34570301848611962 14.009497869018204596614 183.46116237974786145
15.009497869018190385759 611.39149133281830473 15.009497869018190385759 182.93138494262794325
16.009497869018190385759 621.60082754530833427 16.009497869018190385759 182.08557101372889520
17.009497869018190385759 631.05557392639036607 17.009497869018190385759 180.79682641989398917
18.009497869018204596614 639.83060012808266492 18.009497869018204596614 179.30557645998885619
19.009497869018190385759 647.98805784750072689 19.009497869018190385759 177.34625999832394427
20.009497869018190385759 655.57887351627073258 20.009497869018190385759 175.41806270037869808
21.009497869018204596614 662.64817205641941200 21.009497869018204596614 173.35949639976192316
22.009497869018190385759 669.24575152401564537 22.009497869018190385759 171.20175218358264146
23.009497869018190385759 675.42288398733739996 23.009497869018190385759 168.89170804592066588
24.009497869018204596614 681.21401228350794099 24.009497869018204596614 166.57473492282619532
25.009497869018190385759 686.65029877991514695 25.009497869018190385759 164.13242104431827784
26.009497869018190385759 691.75997888599090402 26.009497869018190385759 161.32391226328593348
27.009497869018204596614 696.56612912081914146 27.009497869018204596614 158.45294188063584784
28.009497869018190385759 701.07540278314183979 28.009497869018190385759 155.46557585867645912
29.009497869018190385759 705.29913760520696542 29.009497869018190385759 152.43831576030146380
30.009497869018190385759 709.25975823474152548 30.009497869018190385759 149.40464673949688290
31.009497869018190385759 712.96672239099279977 31.009497869018190385759 146.28862868237115435
32.009497869018190385759 716.45230696555097438 32.009497869018190385759 143.15992077495931767
33.009497869018190385759 719.74240698316293674 33.009497869018190385759 140.08364374620794024
34.009497869018190385759 722.84997865747891410 34.009497869018190385759 136.98179308840886392
35.009497869018190385759 725.78325494823752706 35.009497869018190385759 133.75550198118241951
36.009497869018190385759 728.55335642137629293 36.009497869018190385759 130.75352014179256344
37.009497869018190385759 731.16672221097701367 37.009497869018190385759 127.77221577229472871
38.009497869018190385759 733.62931917844105101 38.009497869018190385759 124.76488276058206850
39.009497869018190385759 735.94662659783818981 39.009497869018190385759 121.69655546585116213
40.009497869018190385759 738.13199678939793102 40.009497869018190385759 118.50703304293404017
41.009497869018190385759 740.19389327530961964 41.009497869018190385759 115.55923708742412259
42.009497869018190385759 742.14005740796460486 42.009497869018190385759 112.53568648636698413
43.009497869018190385759 743.97804902432949348 43.009497869018190385759 109.61209094861602864
44.009497869018190385759 745.71455870337513261 44.009497869018190385759 106.66584560728513509
46.009497869018190385759 748.90691367458077821 46.009497869018190385759 100.98260391970340777
48.009497869018190385759 751.76023411895744175 48.009497869018190385759 95.55009510871504119
50.009497869018218807469 754.31118607129917564 50.009497869018218807469 90.29084030240525749
52.009497869018190385759 756.59488000499050031 52.009497869018190385759 85.23181429102243101
54.009497869018190385759 758.64011516403593305 54.009497869018190385759 80.41390793514035806
56.009497869018190385759 760.47354155158291178 56.009497869018190385759 75.79566903655845067
58.009497869018190385759 762.11763404792645815 58.009497869018190385759 71.39687755360289145
60.009497869018190385759 763.59364868081445366 60.009497869018190385759 67.21199699231615909
62.009497869018190385759 764.91864025671361560 62.009497869018190385759 63.22500357461832721
64.009497869018190385759 766.11010676926139240 64.009497869018190385759 59.43504336408821587
66.009497869018218807469 767.18112234020156848 66.009497869018218807469 55.87685747083650512
68.009497869018190385759 768.14460071464384328 68.009497869018190385759 52.51322423271782469
70.009497869018190385759 769.01190691877195604 70.009497869018190385759 49.28701785129402424
72.009497869018190385759 769.79235061782560479 72.009497869018190385759 46.28468803969012413
74.009497869018218807469 770.49555549563331169 74.009497869018218807469 43.42380901724733633
76.009497869018190385759 771.12937383014275383 76.009497869018190385759 40.71841639047121930
78.009497869018190385759 771.70073893294329537 78.009497869018190385759 38.15537423120058236
80.009497869018218807469 772.21609790316529143 80.009497869018218807469 35.74973840263961478
82.009497869018190385759 772.68083992264030258 82.009497869018190385759 33.46442622879397533
84.009497869018190385759 773.09979986187477152 84.009497869018190385759 31.23578155309882121
86.009497869018218807469 773.47789515483918876 86.009497869018218807469 29.19504716487120533
88.009497869018190385759 773.81911035996108694 88.009497869018190385759 27.20599177801822677
91.009497869018190385759 774.26949963464505799 91.009497869018190385759 24.45407261254900533
94.009497869018190385759 774.65611231377113199 94.009497869018190385759 21.89443075923384896
97.009497869018190385759 774.98716536222184459 97.009497869018190385759 19.58171848308815655
99.504748934509137825444 775.22603950184429777 99.504748934509137825444 16.64230001634275169
nan nan nan nan

