Time Pressure difference Time.1 Pressure.1 difference.1
(hr) (psi) (hr) (psi)
0.000200000000006639311 0.33767544313022779 0.000200000000006639311 0.27066472328301089
0.000399999999999067768 0.63143901046199580 0.000399999999999067768 0.57696020604844567
0.000600000000019917934 0.90169870513237871 0.000600000000019917934 0.79204330575177373
0.000799999999998135536 1.15516932713546994 0.000799999999998135536 0.99165397300223923
0.001007140329448930061 1.40388134209700022 0.001007140329448930061 1.18500392125307674
0.001267914553963578328 1.70087814275149851 0.001267914553963578328 1.41183255113815775
0.001596209851982166583 2.05404577801829635 0.001596209851982166583 1.67493812300747824
0.002009509145210586212 2.47220299253372300 0.002009509145210586212 1.97848098486668422
0.002529822128153114136 2.96515112397482072 0.002529822128153114136 2.32684269428921153
0.003184857364431081805 3.54372580405774995 0.003184857364431081805 2.72464446998925469
0.004009497869020606231 4.21985523884952318 0.004009497869020606231 3.17678907581805703
0.005047658755856332391 5.00663103709016788 0.005047658755856332391 3.68852914011049648
0.006354625877790454069 5.91839772601498648 0.006354625877790454069 4.26555906970422249
0.007999999999995566213 6.97086558893073605 0.007999999999995566213 4.91412355680543822
0.010071403294347192059 8.18124970143677288 0.010071403294347192059 5.64114650844324395
0.012679145539706837553 9.56844151167749679 0.012679145539706837553 6.45441559779659624
0.015962098519764822413 11.15323197395342980 0.015962098519764822413 7.36286752245367282
0.020095091452077440408 12.95861323015010491 0.020095091452077440408 8.37691685850763790
0.025298221281346400247 15.01015139066710979 0.025298221281346400247 9.50852832049156405
0.031848573644282396344 17.33631897888075812 0.031848573644282396344 10.77053179292919083
0.040094978690177640601 19.96854886185005995 0.040094978690177640601 12.17482258539203066
0.050476587558421215363 22.94073344791425839 0.050476587558421215363 13.72964717158496839
0.063546258777947173257 26.28802312263974983 0.063546258777947173257 15.43704100573501847
0.079999999999998294697 30.04513870875379666 0.079999999999998294697 17.29172108501694538
0.100714032943528764008 34.24465136674424315 0.100714032943528764008 19.28166518003602903
0.126791455396883634421 38.91555089065587225 0.126791455396883634421 21.39127563181982339
0.159620985197506115583 44.08296744379823906 0.159620985197506115583 23.60668133972973237
0.200950914520774404082 49.76915951183966058 0.200950914520774404082 25.91645489125950164
0.252982212813464002465 55.99353897896043719 0.252982212813464002465 28.31701122862048692
0.318485736442795541734 62.77610099838265967 0.318485736442795541734 30.82020474889120010
0.400949786901833249431 70.14088120675675952 0.400949786901833249431 33.43578811023956376
0.504765875584169521062 78.11125570027945741 0.504765875584169521062 36.19218037829737256
0.635462587779429100010 86.72280256822857325 0.635462587779429100010 39.12194992301036223
0.800000000000011368684 96.01181828730261714 0.800000000000011368684 42.27058180399362186
1.007140329435344483500 106.03191992607128213 1.007140329435344483500 45.68512543479564414
1.267914553968893187630 116.83715036556252187 1.267914553968893187630 49.39846165374756737
1.596209851975103788391 128.49094844124627457 1.596209851975103788391 53.43544197867518619
2.009509145207672986544 141.05173922405469966 2.009509145207672986544 57.76815677533630833
2.529822128134725289783 154.56114426729254774 2.529822128134725289783 62.31511676475795980
3.184857364427998049905 169.02910148196815499 3.184857364427998049905 66.93663769131629238
4.009497869018190385759 184.42015631094619721 4.009497869018190385759 71.44822906001023455
5.009497869018204596614 200.09777284300358247 5.009497869018204596614 75.51308871015018553
6.009497869018190385759 213.39742651599871692 6.009497869018190385759 78.49862012135587008
7.009497869018190385759 224.91421589337016940 7.009497869018190385759 80.69053753099890969
8.009497869018204596614 235.03220615021527351 8.009497869018204596614 82.27240658215706048
9.009497869018190385759 244.02125908287578682 9.009497869018190385759 83.36686355117450375
10.009497869018190385759 252.08217651508888935 10.009497869018190385759 84.07679557032510331
11.009497869018204596614 259.36266229687771556 11.009497869018204596614 84.57947080324984768
12.009497869018190385759 265.97881915302161815 12.009497869018190385759 84.84255385543799832
13.009497869018190385759 272.02219865912229579 13.009497869018190385759 84.91214877015781326
14.009497869018204596614 277.56688843085390772 14.009497869018204596614 84.82236773515511175
15.009497869018190385759 282.67385442937739981 15.009497869018190385759 84.57742773801196279
16.009497869018190385759 287.39409090512344847 16.009497869018190385759 84.18636982045616435
17.009497869018190385759 291.76544647692981016 17.009497869018190385759 83.59052508450770347
18.009497869018204596614 295.82253676083894334 18.009497869018204596614 82.90105298674413348
19.009497869018190385759 299.59409728888260815 19.009497869018190385759 81.99517263983518944
20.009497869018190385759 303.10367364670287316 20.009497869018190385759 81.10368008549444596
21.009497869018204596614 306.37212912046084057 21.009497869018204596614 80.15191206280698566
22.009497869018190385759 309.42248759689948656 22.009497869018190385759 79.15428961776699168
23.009497869018190385759 312.27845446507024008 23.009497869018190385759 78.08625205173643735
24.009497869018204596614 314.95595420162186429 24.009497869018204596614 77.01501090330859256
25.009497869018190385759 317.46939457412662478 25.009497869018190385759 75.88581907196794418
26.009497869018190385759 319.83183008551532112 26.009497869018190385759 74.58731882525613344
27.009497869018204596614 322.05393005109368687 27.009497869018204596614 73.25993976368769722
28.009497869018190385759 324.13877059087116095 28.009497869018190385759 71.87874574972171615
29.009497869018190385759 326.09159364969053740 29.009497869018190385759 70.47910690538247991
30.009497869018190385759 327.92276715333616721 30.009497869018190385759 69.07650492722210345
31.009497869018190385759 329.63666383186989606 31.009497869018190385759 67.63582927640609910
32.009497869018190385759 331.24820674765697959 32.009497869018190385759 66.18928653561034992
33.009497869018190385759 332.76936833825936901 33.009497869018190385759 64.76698495415713808
34.009497869018190385759 334.20613884545019800 34.009497869018190385759 63.33285953086586062
35.009497869018190385759 335.56232473774565506 35.009497869018190385759 61.84119967671446005
36.009497869018190385759 336.84306755421113166 36.009497869018190385759 60.45324811131497000
37.009497869018190385759 338.05134439687685699 37.009497869018190385759 59.07485667260527862
38.009497869018190385759 339.18991401481781622 38.009497869018190385759 57.68443101895358183
39.009497869018190385759 340.26130972350006232 39.009497869018190385759 56.26580495799601067
40.009497869018190385759 341.27170490262915337 40.009497869018190385759 54.79114492452145413
41.009497869018190385759 342.22501262013838641 41.009497869018190385759 53.42824593651162957
42.009497869018190385759 343.12481205230011483 42.009497869018190385759 52.03032216004574195
43.009497869018190385759 343.97459845262136469 43.009497869018190385759 50.67861211637633545
44.009497869018190385759 344.77746517744230914 44.009497869018190385759 49.31643004721953361
46.009497869018190385759 346.25343482571179266 46.009497869018190385759 46.68881115448632357
48.009497869018190385759 347.57265352497080357 48.009497869018190385759 44.17711737628864910
50.009497869018218807469 348.75207363639668756 50.009497869018218807469 41.74552673657440494
52.009497869018190385759 349.80792831498609985 52.009497869018190385759 39.40651089718387112
54.009497869018190385759 350.75353274981637242 54.009497869018190385759 37.17897554675221983
56.009497869018190385759 351.60120843900642740 56.009497869018190385759 35.04375546494838289
58.009497869018190385759 352.36134653312137743 58.009497869018190385759 33.00999581839599983
60.009497869018190385759 353.04377465223547006 60.009497869018190385759 31.07513683629489165
62.009497869018190385759 353.65637800238903310 62.009497869018190385759 29.23177000351752852
64.009497869018190385759 354.20724669503505311 64.009497869018190385759 27.47950050675193978
66.009497869018218807469 354.70242548617517286 66.009497869018218807469 25.83439072769848366
68.009497869018190385759 355.14788498246161907 68.009497869018190385759 24.27923141360166426
70.009497869018190385759 355.54887974795462924 70.009497869018190385759 22.78761073200915277
72.009497869018190385759 355.90971406067251337 72.009497869018190385759 21.39949828336483151
74.009497869018218807469 356.23483738358640949 74.009497869018218807469 20.07678491264533704
76.009497869018190385759 356.52788017885535510 76.009497869018190385759 18.82595991361157672
78.009497869018190385759 356.79204802905388760 78.009497869018190385759 17.64094995436824220
80.009497869018218807469 357.03032171881335444 80.009497869018218807469 16.52871603935196987
82.009497869018190385759 357.24519290989564979 82.009497869018190385759 15.47211317537185771
84.009497869018190385759 357.43889698094307050 84.009497869018190385759 14.44171025095607952
86.009497869018218807469 357.61370748340988257 86.009497869018218807469 13.49818672541709752
88.009497869018190385759 357.77146665832333383 88.009497869018190385759 12.57855673244884542
91.009497869018190385759 357.97970192831536451 91.009497869018190385759 11.30622041666946487
94.009497869018190385759 358.15845040245852715 94.009497869018190385759 10.12278257219105448
97.009497869018190385759 358.31151115412546915 97.009497869018190385759 9.05351140543160682
99.504748934509137825444 358.42195343984224110 99.504748934509137825444 7.69448570822329270
nan nan nan nan

