Time Pressure difference Time.1 Pressure.1 difference.1
(hr) (psi) (hr) (psi)
0.000200000000006639311 0.04038180557021281 0.000200000000006639311 0.03236815247508171
0.000399999999999067768 0.07551229403463042 0.000399999999999067768 0.06899730299136050
0.000600000000019917934 0.10783201009830509 0.000600000000019917934 0.09471858089402654
0.000799999999998135536 0.13814396077083971 0.000799999999998135536 0.11858954728686570
0.001007140329448930061 0.16788684091056910 0.001007140329448930061 0.14171180913954320
0.001267914553963578328 0.20340398408162252 0.001267914553963578328 0.16883770714641885
0.001596209851982166583 0.24563846417538393 0.001596209851982166583 0.20030187862769844
0.002009509145210586212 0.29564489395248644 0.002009509145210586212 0.23660184973663442
0.002529822128153114136 0.35459539214544250 0.002529822128153114136 0.27826160055417370
0.003184857364431081805 0.42378576625845255 0.003184857364431081805 0.32583377166881811
0.004009497869020606231 0.50464248217169549 0.004009497869020606231 0.37990467298442737
0.005047658755856332391 0.59873113433243241 0.005047658755856332391 0.44110245386888408
0.006354625877790454069 0.70776715073993657 0.006354625877790454069 0.51010809493370091
0.007999999999995566213 0.83362928692367566 0.007999999999995566213 0.58766838411281530
0.010071403294347192059 0.97837625295532560 0.010071403294347192059 0.67461133503032600
0.012679145539706837553 1.14426723232431904 0.012679145539706837553 0.77186825705608786
0.015962098519764822413 1.33378856595731743 0.015962098519764822413 0.88050786866456299
0.020095091452077440408 1.54968982958496126 0.020095091452077440408 1.00177562431637734
0.025298221281346400247 1.79502841372926247 0.025298221281346400247 1.13710235585259967
0.031848573644282396344 2.07320927994862680 0.031848573644282396344 1.28802235874204740
0.040094978690177640601 2.38799141028310036 0.040094978690177640601 1.45595816485100582
0.050476587558421215363 2.74342791748253001 0.050476587558421215363 1.64189595041634684
0.063546258777947173257 3.14372235281052692 0.063546258777947173257 1.84607913058274442
0.079999999999998294697 3.59302689712932022 0.079999999999998294697 2.06787592356903671
0.100714032943528764008 4.09523665829106420 0.100714032943528764008 2.30584861946822572
0.126791455396883634421 4.65381845702688857 0.126791455396883634421 2.55813193122793736
0.159620985197506115583 5.27177754997999592 0.159620985197506115583 2.82306704681304010
0.200950914520774404082 5.95177577667360946 0.200950914520774404082 3.09928738905783741
0.252982212813464002465 6.69613455830867110 0.252982212813464002465 3.38636422940203774
0.318485736442795541734 7.50724506784782264 0.318485736442795541734 3.68571520708389633
0.400949786901833249431 8.38798167008637563 0.400949786901833249431 3.99850661936885476
0.504765875584169521062 9.34113985694063587 0.504765875584169521062 4.32813703493040691
0.635462587779429100010 10.37097432774692152 0.635462587779429100010 4.67850122790639400
0.800000000000011368684 11.48182569208979764 0.800000000000011368684 5.05503864872501030
1.007140329435344483500 12.68010588806625627 1.007140329435344483500 5.46337582519205611
1.267914553968893187630 13.97227777567551676 1.267914553968893187630 5.90744489879867807
1.596209851975103788391 15.36592785482944912 1.596209851975103788391 6.39021780363538294
2.009509145207672986544 16.86804304122715692 2.009509145207672986544 6.90835689272063114
2.529822128134725289783 18.48360075773807765 2.529822128134725289783 7.45211705640404443
3.184857364427998049905 20.21378945557557572 3.184857364427998049905 8.00479378576565992
4.009497869018190385759 22.05436920831933989 4.009497869018190385759 8.54432429995998532
5.009497869018204596614 23.92921819565815866 5.009497869018204596614 9.03043122719321900
6.009497869018190385759 25.51969224315036300 6.009497869018190385759 9.38746384956420776
7.009497869018190385759 26.89695777693911438 7.009497869018190385759 9.64959005525347813
8.009497869018204596614 28.10694424064429953 8.009497869018204596614 9.83876202425795654
9.009497869018190385759 29.18192376661195198 9.009497869018190385759 9.96964553807860021
10.009497869018190385759 30.14590976881475370 10.009497869018190385759 10.05454462490485668
11.009497869018204596614 31.01656580045135314 11.009497869018204596614 10.11465836409998253
12.009497869018190385759 31.80777631108299985 12.009497869018190385759 10.14611984250598553
13.009497869018190385759 32.53048973655483422 13.009497869018190385759 10.15444253333845914
14.009497869018204596614 33.19356603915366577 14.009497869018204596614 10.14370583224535416
15.009497869018190385759 33.80429599361626458 15.009497869018190385759 10.11441403877256384
16.009497869018190385759 34.36877788143744539 16.009497869018190385759 10.06764834966279842
17.009497869018190385759 34.89153792919984909 17.009497869018190385759 9.99639269051844792
18.009497869018204596614 35.37671573634775513 18.009497869018204596614 9.91394035717764943
19.009497869018190385759 35.82774771702101191 19.009497869018190385759 9.80560827445451899
20.009497869018190385759 36.24744963197683489 20.009497869018190385759 9.69899679372923273
21.009497869018204596614 36.63831647213758202 21.009497869018204596614 9.58517711266557804
22.009497869018190385759 37.00310160952611938 22.009497869018190385759 9.46587380995976346
23.009497869018190385759 37.34463991541046113 23.009497869018190385759 9.33814972989837955
24.009497869018204596614 37.66483576019395230 24.009497869018204596614 9.21004254101422326
25.009497869018190385759 37.96541213463783038 25.009497869018190385759 9.07500516736936191
26.009497869018190385759 38.24793019579358599 26.009497869018190385759 8.91972060178320802
27.009497869018204596614 38.51366586178027518 27.009497869018204596614 8.76098248720388995
28.009497869018190385759 38.76298699849593277 28.009497869018190385759 8.59580877006981225
29.009497869018190385759 38.99652047769495766 29.009497869018190385759 8.42842927940656494
30.009497869018190385759 39.21550617503813640 30.009497869018190385759 8.26069543459563249
31.009497869018190385759 39.42046701494526673 31.009497869018190385759 8.08840844954959515
32.009497869018190385759 39.61318761106001318 32.009497869018190385759 7.91541983312453734
33.009497869018190385759 39.79509971880214891 33.009497869018190385759 7.74533015946621539
34.009497869018190385759 39.96691969698166957 34.009497869018190385759 7.57382650059839158
35.009497869018190385759 40.12910275214277789 35.009497869018190385759 7.39544243556585279
36.009497869018190385759 40.28226374875102067 36.009497869018190385759 7.22946059887890247
37.009497869018190385759 40.42675871137908672 37.009497869018190385759 7.06462203507444553
38.009497869018190385759 40.56291755228749452 38.009497869018190385759 6.89834432803980935
39.009497869018190385759 40.69104322466598234 39.009497869018190385759 6.72869420116240935
40.009497869018190385759 40.81187398835565716 40.009497869018190385759 6.55234310437576184
41.009497869018190385759 40.92587779787221791 41.009497869018190385759 6.38935724601582411
42.009497869018190385759 41.03348267841939645 42.009497869018190385759 6.22218285625289358
43.009497869018190385759 41.13510661907636745 43.009497869018190385759 6.06053505721613828
44.009497869018190385759 41.23111954699309933 44.009497869018190385759 5.89763493348192380
46.009497869018190385759 41.40762725750779794 46.009497869018190385759 5.58340422053650975
48.009497869018190385759 41.56538949370784763 48.009497869018190385759 5.28303671716441592
50.009497869018218807469 41.70643354827012672 50.009497869018218807469 4.99224855818827962
52.009497869018190385759 41.83270070570967647 52.009497869018190385759 4.71253120007559634
54.009497869018190385759 41.94578329791618643 54.009497869018190385759 4.44614552930232776
56.009497869018190385759 42.04715482363376111 56.009497869018190385759 4.19079962261238315
58.009497869018190385759 42.13805793591966875 58.009497869018190385759 3.94758712879787188
60.009497869018190385759 42.21966789655598973 60.009497869018190385759 3.71620193093835782
62.009497869018190385759 42.29292767863621805 62.009497869018190385759 3.49575806227632269
64.009497869018190385759 42.35880475940625445 64.009497869018190385759 3.28620830802394304
66.009497869018218807469 42.41802201690342145 66.009497869018218807469 3.08947353032270478
68.009497869018190385759 42.47129346182015297 68.009497869018190385759 2.90349571544102369
70.009497869018190385759 42.51924747501313107 70.009497869018190385759 2.72511633496191896
72.009497869018190385759 42.56239879488454392 72.009497869018190385759 2.55911525862919653
74.009497869018218807469 42.60127952216085134 74.009497869018218807469 2.40093510295552459
76.009497869018190385759 42.63632381520331904 76.009497869018190385759 2.25135190719478651
78.009497869018190385759 42.66791502203118114 78.009497869018190385759 2.10963937598630524
80.009497869018218807469 42.69640960761066140 80.009497869018218807469 1.97662995934518348
82.009497869018190385759 42.72210554386381176 82.009497869018190385759 1.85027332818879953
84.009497869018190385759 42.74527015442205879 84.009497869018190385759 1.72704988568134543
86.009497869018218807469 42.76617532791293286 86.009497869018218807469 1.61421614448286932
88.009497869018190385759 42.78504137357268178 88.009497869018190385759 1.50423977418975885
91.009497869018190385759 42.80994373575730805 91.009497869018190385759 1.35208409106562666
94.009497869018190385759 42.83131984194350395 94.009497869018190385759 1.21055956533418785
97.009497869018190385759 42.84962401430779266 97.009497869018190385759 1.08268796188666649
99.504748934509137825444 42.86283154538319451 99.504748934509137825444 0.92016530118958972
nan nan nan nan

