Time Pressure difference Time.1 Pressure.1 difference.1
(hr) (psi) (hr) (psi)
0.000200000000006639311 0.35577763183411631 0.000200000000006639311 0.28517458473735785
0.000399999999999067768 0.66528934916717486 0.000399999999999067768 0.60789003152733145
0.000600000000019917934 0.95003719241782580 0.000600000000019917934 0.83450335925599251
0.000799999999998135536 1.21709593023963936 0.000799999999998135536 1.04481480454462727
0.001007140329448930061 1.47914096043622090 0.001007140329448930061 1.24852990466045832
0.001267914553963578328 1.79205923906395004 0.001267914553963578328 1.48751841985896638
0.001596209851982166583 2.16415957230381339 0.001596209851982166583 1.76472862032334321
0.002009509145210586212 2.60473346223656188 0.002009509145210586212 2.08454388302448557
0.002529822128153114136 3.12410767907450193 0.002529822128153114136 2.45158065315832374
0.003184857364431081805 3.73369873375981465 0.003184857364431081805 2.87070788487527651
0.004009497869020606231 4.44607428258166237 0.004009497869020606231 3.34709117060417949
0.005047658755856332391 5.27502775248056910 0.005047658755856332391 3.88626472287930680
0.006354625877790454069 6.23567265565702744 0.006354625877790454069 4.49422821570898545
0.007999999999995566213 7.34456147617238386 0.007999999999995566213 5.17756110830428629
0.010071403294347192059 8.61983215965812732 0.010071403294347192059 5.94355848621545757
0.012679145539706837553 10.08138889168495034 0.012679145539706837553 6.80042550613208441
0.015962098519764822413 11.75113719317567629 0.015962098519764822413 7.75757794633778719
0.020095091452077440408 13.65330177444681325 0.020095091452077440408 8.82598869009773956
0.025298221281346400247 15.81481930026988358 0.025298221281346400247 10.01826385932204211
0.031848573644282396344 18.26568865609910830 0.031848573644282396344 11.34792112615838455
0.040094978690177640601 21.03902776990800305 0.040094978690177640601 12.82749348687696234
0.050476587558421215363 24.17054596264780741 0.050476587558421215363 14.46566949418539849
0.063546258777947173257 27.69727797045136697 0.063546258777947173257 16.26459371944452315
0.079999999999998294697 31.65580593850142321 0.079999999999998294697 18.21869994730651499
0.100714032943528764008 36.08044711011610417 0.100714032943528764008 20.31532145772868247
0.126791455396883634421 41.00174537139206166 0.126791455396883634421 22.53802442857717381
0.159620985197506115583 46.44617806965133866 0.159620985197506115583 24.87219415381833798
0.200950914520774404082 52.43719692896921458 0.200950914520774404082 27.30579061738887603
0.252982212813464002465 58.99525447061604666 0.252982212813464002465 29.83503657283519672
0.318485736442795541734 66.14141775293514058 0.318485736442795541734 32.47242191068743011
0.400949786901833249431 73.90101092093341606 0.400949786901833249431 35.22822211202559828
0.504765875584169521062 82.29866322235629639 0.504765875584169521062 38.13237973878341336
0.635462587779429100010 91.37186002549444197 0.635462587779429100010 41.21920909414081535
0.800000000000011368684 101.15884359754977595 0.800000000000011368684 44.53663361204277038
1.007140329435344483500 111.71610532416994488 1.007140329435344483500 48.13422494264035834
1.267914553968893187630 123.10058523052050816 1.267914553968893187630 52.04662660838145882
1.596209851975103788391 135.37912299685947914 1.596209851975103788391 56.30002237340828231
2.009509145207672986544 148.61327575977722404 2.009509145207672986544 60.86500641690072655
2.529822128134725289783 162.84689633110616569 2.529822128134725289783 65.65572096245632849
3.184857364427998049905 178.09045537584685803 3.184857364427998049905 70.52499352631468810
4.009497869018190385759 194.30659768019279454 4.009497869018190385759 75.27844340137160373
5.009497869018204596614 210.82466375829861249 5.009497869018204596614 79.56121305337472904
6.009497869018190385759 224.83728855603163765 6.009497869018190385759 82.70679357116053154
7.009497869018190385759 236.97147282786011147 7.009497869018190385759 85.01621583162977913
8.009497869018204596614 247.63187080981441568 8.009497869018204596614 86.68288611027270463
9.009497869018190385759 257.10281111618462546 9.009497869018190385759 87.83601499927870293
10.009497869018190385759 265.59586020455759581 10.009497869018190385759 88.58400522976521074
11.009497869018204596614 273.26664006949380337 11.009497869018204596614 89.11362800094984493
12.009497869018190385759 280.23747749936921991 12.009497869018190385759 89.39081447449240159
13.009497869018190385759 286.60483198930211302 13.009497869018190385759 89.46414025061987729
14.009497869018204596614 292.44676286219868189 14.009497869018204596614 89.36954621167889457
15.009497869018190385759 297.82750435755019680 15.009497869018190385759 89.11147541056517696
16.009497869018190385759 302.80078443818166534 16.009497869018190385759 88.69945356340845422
17.009497869018190385759 307.40648072105386746 17.009497869018190385759 88.07166663542977858
18.009497869018204596614 311.68106450471896096 18.009497869018204596614 87.34523314685826278
19.009497869018190385759 315.65481178271960516 19.009497869018190385759 86.39079014217686847
20.009497869018190385759 319.35253037827868638 20.009497869018190385759 85.45150623440754600
21.009497869018204596614 322.79620202176386101 21.009497869018204596614 84.44871559607086908
22.009497869018190385759 326.01008487013535841 22.009497869018190385759 83.39761236016275348
23.009497869018190385759 329.01915511680596182 23.009497869018190385759 82.27231917203570788
24.009497869018204596614 331.84019092170882459 24.009497869018204596614 81.14365066307358632
25.009497869018190385759 334.48837242758497723 25.009497869018190385759 79.95392483665077066
26.009497869018190385759 336.97745396638833881 26.009497869018190385759 78.58581426743481302
27.009497869018204596614 339.31867681671934633 27.009497869018204596614 77.18727674071011791
28.009497869018190385759 341.51528200399002344 28.009497869018190385759 75.73203933630472307
29.009497869018190385759 343.57279248451931153 29.009497869018190385759 74.25736830649576348
30.009497869018190385759 345.50213199042218548 30.009497869018190385759 72.77957529445463081
31.009497869018190385759 347.30790766615569964 31.009497869018190385759 71.26166754689384675
32.009497869018190385759 349.00584257330461924 32.009497869018190385759 69.73757818494205196
33.009497869018190385759 350.60855097082583143 33.009497869018190385759 68.23902950840061976
34.009497869018190385759 352.12234422685577329 34.009497869018190385759 66.72802313458238643
35.009497869018190385759 353.55123286801654103 35.009497869018190385759 65.15639800989914932
36.009497869018190385759 354.90063406227193354 36.009497869018190385759 63.69404079357101978
37.009497869018190385759 356.17368450887437348 37.009497869018190385759 62.24175620556968624
38.009497869018190385759 357.37329084860186867 38.009497869018190385759 60.77679226945417668
39.009497869018190385759 358.50212220352267423 39.009497869018190385759 59.28211615162054215
40.009497869018190385759 359.56668289740929367 40.009497869018190385759 57.72840217820714059
41.009497869018190385759 360.57109577090869834 41.009497869018190385759 56.29244056403596375
42.009497869018190385759 361.51913187366051261 42.009497869018190385759 54.81957654388324386
43.009497869018190385759 362.41447383358661227 43.009497869018190385759 53.39540369374908124
44.009497869018190385759 363.26038083643919663 44.009497869018190385759 51.96019743119418877
46.009497869018190385759 364.81547463080147509 46.009497869018190385759 49.19171649472683328
48.009497869018190385759 366.20541433249502461 48.009497869018190385759 46.54537521501752906
50.009497869018218807469 367.44806108906948339 50.009497869018218807469 43.98343126265880443
52.009497869018190385759 368.56051828651112601 52.009497869018190385759 41.51902488342465602
54.009497869018190385759 369.55681491784781656 54.009497869018190385759 39.17207526678429730
56.009497869018190385759 370.44993301511811978 56.009497869018190385759 36.92238977853324400
58.009497869018190385759 371.25082078025775445 58.009497869018190385759 34.77960384165021424
60.009497869018190385759 371.96983267482949032 60.009497869018190385759 32.74102046050863635
62.009497869018190385759 372.61527661695009783 62.009497869018190385759 30.79883396246898286
64.009497869018190385759 373.19567641476891140 64.009497869018190385759 28.95262836896956671
66.009497869018218807469 373.71740087306289979 66.009497869018218807469 27.21932713784314117
68.009497869018190385759 374.18674067224310420 68.009497869018190385759 25.58079845845453804
70.009497869018190385759 374.60923206433983523 70.009497869018190385759 24.00921460630242521
72.009497869018190385759 374.98941007217246124 72.009497869018190385759 22.54668788206068086
74.009497869018218807469 375.33196268662402417 74.009497869018218807469 21.15306616569436216
76.009497869018190385759 375.64071499256715470 76.009497869018190385759 19.83518663062993070
78.009497869018190385759 375.91904441824021887 78.009497869018190385759 18.58665036429313488
80.009497869018218807469 376.17009154291469031 80.009497869018218807469 17.41479153836877458
82.009497869018190385759 376.39648160197253901 82.009497869018190385759 16.30154604662890705
84.009497869018190385759 376.60056980878749755 84.009497869018190385759 15.21590502729599059
86.009497869018218807469 376.78475159592261434 86.009497869018218807469 14.22180085915079850
88.009497869018190385759 376.95096796371791470 88.009497869018190385759 13.25287111398218798
91.009497869018190385759 377.17036636158587726 91.009497869018190385759 11.91232707818164371
94.009497869018190385759 377.35869722815738214 94.009497869018190385759 10.66544720492706944
97.009497869018190385759 377.51996329847037259 97.009497869018190385759 9.53885428489804355
99.504748934509137825444 377.63632620156573694 99.504748934509137825444 8.10697360186000715
nan nan nan nan

