Time Pressure difference Time.1 Pressure.1 difference.1
(hr) (psi) (hr) (psi)
0.000200000000006639311 0.70668159747872428 0.000200000000006639311 0.56644266831392998
0.000399999999999067768 1.32146514560603245 0.000399999999999067768 1.20745280234880892
0.000600000000019917934 1.88706017672033921 0.000600000000019917934 1.65757516564546448
0.000799999999998135536 2.41751931348969462 0.000799999999998135536 2.07531707752014993
0.001007140329448930061 2.93801971593495947 0.001007140329448930061 2.47995665994200643
0.001267914553963578328 3.55956972142839412 0.001267914553963578328 2.95465987506233052
0.001596209851982166583 4.29867312306921789 0.001596209851982166583 3.50528287598472232
0.002009509145210586212 5.17378564416851372 0.002009509145210586212 4.14053237039110211
0.002529822128153114136 6.20541936254524362 0.002529822128153114136 4.86957800969804033
0.003184857364431081805 7.41625090952291988 0.003184857364431081805 5.70209100420431625
0.004009497869020606231 8.83124343800467138 0.004009497869020606231 6.64833177722747948
0.005047658755856332391 10.47779485081756867 0.005047658755856332391 7.71929294270547306
0.006354625877790454069 12.38592513794888994 0.006354625877790454069 8.92689166133976642
0.007999999999995566213 14.58851252116432562 0.007999999999995566213 10.28419672197426671
0.010071403294347192059 17.12158442671819714 0.010071403294347192059 11.80569836303070375
0.012679145539706837553 20.02467656567558407 0.012679145539706837553 13.50769449848153769
0.015962098519764822413 23.34129990425305579 0.015962098519764822413 15.40888770162985111
0.020095091452077440408 27.11957201773681803 0.020095091452077440408 17.53107342553660430
0.025298221281346400247 31.41299724026209361 0.025298221281346400247 19.89929122742049117
0.031848573644282396344 36.28116239910097107 0.031848573644282396344 22.54039127798583309
0.040094978690177640601 41.78984967995425137 0.040094978690177640601 25.47926788489260019
0.050476587558421215363 48.00998855594427539 0.050476587558421215363 28.73317913228606812
0.063546258777947173257 55.01514117418422245 0.063546258777947173257 32.30638478519802703
0.079999999999998294697 62.87797069976310382 0.079999999999998294697 36.18782866245814489
0.100714032943528764008 71.66664152009363420 0.100714032943528764008 40.35235084069395128
0.126791455396883634421 81.44182299797054725 0.126791455396883634421 44.76730879648890493
0.159620985197506115583 92.25610712464992957 0.159620985197506115583 49.40367331922820426
0.200950914520774404082 104.15607609178816517 0.200950914520774404082 54.23752930851215126
0.252982212813464002465 117.18235477040173009 0.252982212813464002465 59.26137401453566156
0.318485736442795541734 131.37678868733692639 0.318485736442795541734 64.50001612396818018
0.400949786901833249431 146.78967922651156641 0.400949786901833249431 69.97386583895494994
0.504765875584169521062 163.46994749646111700 0.504765875584169521062 75.74239811128211386
0.635462587779429100010 181.49205073557115497 0.635462587779429100010 81.87377148836189633
0.800000000000011368684 200.93194961157146849 0.800000000000011368684 88.46317635268769664
1.007140329435344483500 221.90185304115948384 1.007140329435344483500 95.60907694086098729
1.267914553968893187630 244.51486107432154427 1.267914553968893187630 103.38028572897685819
1.596209851975103788391 268.90373745951535511 1.596209851975103788391 111.82881156361919750
2.009509145207672986544 295.19075322147523366 2.009509145207672986544 120.89624562261103335
2.529822128134725289783 323.46301326041634638 2.529822128134725289783 130.41204848707079123
3.184857364427998049905 353.74131547257252350 3.184857364427998049905 140.08389125089905747
4.009497869018190385759 385.95146114558838235 4.009497869018190385759 149.52567524929978049
5.009497869018204596614 418.76131842401775884 5.009497869018204596614 158.03254647588130410
6.009497869018190385759 446.59461425513137556 6.009497869018190385759 164.28061736737365095
7.009497869018190385759 470.69676109643444306 7.009497869018190385759 168.86782596693586811
8.009497869018204596614 491.87152421127530033 8.009497869018204596614 172.17833542451424478
9.009497869018190385759 510.68366591570912760 9.009497869018190385759 174.46879691637548149
10.009497869018190385759 527.55342095425817206 10.009497869018190385759 175.95453093583500959
11.009497869018204596614 542.78990150789877589 11.009497869018204596614 177.00652137174969880
12.009497869018190385759 556.63608544395253830 12.009497869018190385759 177.55709724385476989
13.009497869018190385759 569.28357038970955273 13.009497869018190385759 177.70274433342302700
14.009497869018204596614 580.88740568518915097 14.009497869018204596614 177.51485206429370578
15.009497869018190385759 591.57517988828465150 15.009497869018190385759 177.00224567851986990
16.009497869018190385759 601.45361292515531204 16.009497869018190385759 176.18384611909897330
17.009497869018190385759 610.60191376099726313 17.009497869018190385759 174.93687208407285993
18.009497869018204596614 619.09252538608575378 18.009497869018204596614 173.49395625060887483
19.009497869018190385759 626.98558504786774392 19.009497869018190385759 171.59814480295406725
20.009497869018190385759 634.33036855959460354 20.009497869018190385759 169.73244389026157819
21.009497869018204596614 641.17053826240771741 21.009497869018204596614 167.74059947164761297
22.009497869018190385759 647.55427816670714947 22.009497869018190385759 165.65279167429588369
23.009497869018190385759 653.53119851968301646 23.009497869018190385759 163.41762027322161543
24.009497869018204596614 659.13462580339421493 24.009497869018204596614 161.17574446774889907
25.009497869018190385759 664.39471235616190370 25.009497869018190385759 158.81259042896382994
26.009497869018190385759 669.33877842638764832 26.009497869018190385759 156.09511053120613155
27.009497869018204596614 673.98915258115493998 27.009497869018204596614 153.31719352606808116
28.009497869018190385759 678.35227247367879500 28.009497869018190385759 150.42665347622173044
29.009497869018190385759 682.43910835966175910 29.009497869018190385759 147.49751238961488298
30.009497869018190385759 686.27135806316732669 30.009497869018190385759 144.56217010542357571
31.009497869018190385759 689.85817276154216415 31.009497869018190385759 141.54714786711792840
32.009497869018190385759 693.23078319355022359 32.009497869018190385759 138.51984707967940835
33.009497869018190385759 696.41424507903764152 33.009497869018190385759 135.54327779065877735
34.009497869018190385759 699.42109469717934189 34.009497869018190385759 132.54196376047184458
35.009497869018190385759 702.25929816249856685 35.009497869018190385759 129.42024262240244070
36.009497869018190385759 704.93961560314278358 36.009497869018190385759 126.51556048038079894
37.009497869018190385759 707.46827744913400693 37.009497869018190385759 123.63088561380278918
38.009497869018190385759 709.85105716503107942 38.009497869018190385759 120.72102574069667469
39.009497869018190385759 712.09325643165470865 39.009497869018190385759 117.75214852034216051
40.009497869018190385759 714.20779479622387953 40.009497869018190385759 114.66600432657583042
41.009497869018190385759 716.20286146276384898 41.009497869018190385759 111.81375180527690816
42.009497869018190385759 718.08594687233937748 42.009497869018190385759 108.88819998442562564
43.009497869018190385759 719.86436583383647303 43.009497869018190385759 106.05936350128243362
44.009497869018190385759 721.54459207237925966 44.009497869018190385759 103.20861133593366787
46.009497869018190385759 724.63347700638644255 46.009497869018190385759 97.70957385938891093
48.009497869018190385759 727.39431613988733716 48.009497869018190385759 92.45314255037726525
50.009497869018218807469 729.86258709472713235 50.009497869018218807469 87.36434976829488619
52.009497869018190385759 732.07226234991946967 52.009497869018190385759 82.46929600132293103
54.009497869018190385759 734.05120771353324471 54.009497869018190385759 77.80754676279073578
56.009497869018190385759 735.82520941359075550 56.009497869018190385759 73.33899339571671305
58.009497869018190385759 737.41601387859429906 58.009497869018190385759 69.08277475396276657
60.009497869018190385759 738.84418818972983445 60.009497869018190385759 65.03353379142126300
62.009497869018190385759 740.12623437613376609 62.009497869018190385759 61.17576608983565478
64.009497869018190385759 741.27908328960950257 64.009497869018190385759 57.50864539041900514
66.009497869018218807469 742.31538529580996055 66.009497869018218807469 54.06578678064733623
68.009497869018190385759 743.24763558185270540 68.009497869018190385759 50.81117502021792376
70.009497869018190385759 744.08683081272988602 70.009497869018190385759 47.68953586183358340
72.009497869018190385759 744.84197891047961093 72.009497869018190385759 44.78451702601093842
74.009497869018218807469 745.52239163781496245 74.009497869018218807469 42.01636430172167991
76.009497869018190385759 746.13566676605807970 76.009497869018190385759 39.39865837590875941
78.009497869018190385759 746.68851288554571966 78.009497869018190385759 36.91868907976034109
80.009497869018218807469 747.18716813318656023 80.009497869018218807469 34.59102428854071576
82.009497869018190385759 747.63684701761667384 82.009497869018190385759 32.37978324330399005
84.009497869018190385759 748.04222770238607154 84.009497869018190385759 30.22337299942354960
86.009497869018218807469 748.40806823847640317 86.009497869018218807469 28.24878252845021365
88.009497869018190385759 748.73822403752194532 88.009497869018190385759 26.32419604832078264
91.009497869018190385759 749.17401537575278780 91.009497869018190385759 23.66147159364846786
94.009497869018190385759 749.54809723401115207 94.009497869018190385759 21.18479239334829245
97.009497869018190385759 749.86842025038640713 97.009497869018190385759 18.94703933301666154
99.504748934509137825444 750.09955204420589325 99.504748934509137825444 16.10289277081782089
nan nan nan nan

