Time Pressure difference Time.1 Pressure.1 difference.1
(hr) (psi) (hr) (psi)
0.000200000000006639311 0.55559794560396258 0.000200000000006639311 0.44534113232957251
0.000399999999999067768 1.03894501102819081 0.000399999999999067768 0.94930772046733936
0.000600000000019917934 1.48361972514564600 0.000600000000019917934 1.30319702678333083
0.000799999999998135536 1.90067035681258734 0.000799999999998135536 1.63162859887791112
0.001007140329448930061 2.30989136287300267 0.001007140329448930061 1.94975902919578425
0.001267914553963578328 2.79855826374370320 0.001267914553963578328 2.32297397073865941
0.001596209851982166583 3.37964645537855768 0.001596209851982166583 2.75587757146385082
0.002009509145210586212 4.06766595472558912 0.002009509145210586212 3.25531510499714249
0.002529822128153114136 4.87874349882867353 0.002529822128153114136 3.82849581452121823
0.003184857364431081805 5.83070761162491635 0.003184857364431081805 4.48302327227097930
0.004009497869020606231 6.94318449608643196 0.004009497869020606231 5.22696429382022565
0.005047658755856332391 8.23771457236691695 0.005047658755856332391 6.06896134805809506
0.006354625877790454069 9.73789976362878384 0.006354625877790454069 7.01838378891540149
0.007999999999995566213 11.46958915457057238 0.007999999999995566213 8.08550638831080271
0.010071403294347192059 13.46110775617844624 0.010071403294347192059 9.28172147162414163
0.012679145539706837553 15.74353881715183867 0.012679145539706837553 10.61984257121996755
0.015962098519764822413 18.35109095920585176 0.015962098519764822413 12.11457377921243506
0.020095091452077440408 21.32159455187584385 0.020095091452077440408 13.78305083111153806
0.025298221281346400247 24.69711507165433417 0.025298221281346400247 15.64495999948921678
0.031848573644282396344 28.52450009308628154 0.031848573644282396344 17.72141107372679159
0.040094978690177640601 32.85546802423989732 0.040094978690177640601 20.03197613019142409
0.050476587558421215363 37.74578410605273859 0.050476587558421215363 22.59022359365939181
0.063546258777947173257 43.25328340591035214 0.063546258777947173257 25.39950252077638027
0.079999999999998294697 49.43509420533099075 0.079999999999998294697 28.45112046565675001
0.100714032943528764008 56.34480781579774344 0.100714032943528764008 31.72529652302835501
0.126791455396883634421 64.03012290874924872 0.126791455396883634421 35.19636691586024568
0.159620985197506115583 72.53238767041442259 0.159620985197506115583 38.84150867856562428
0.200950914520774404082 81.88822534112999563 0.200950914520774404082 42.64191959427851941
0.252982212813464002465 92.12957547466068320 0.252982212813464002465 46.59170094935907258
0.318485736442795541734 103.28933731280280028 0.318485736442795541734 50.71035750436119116
0.400949786901833249431 115.40705815049875582 0.400949786901833249431 55.01393590097148234
0.504765875584169521062 128.52120010066599320 0.504765875584169521062 59.54919575645629237
0.635462587779429100010 142.69030195762147173 0.635462587779429100010 64.36972379085003126
0.800000000000011368684 157.97408452220102504 0.800000000000011368684 69.55035933935445769
1.007140329435344483500 174.46076721856678660 1.007140329435344483500 75.16851566384931971
1.267914553968893187630 192.23927008601833677 1.267914553968893187630 81.27829360760939892
1.596209851975103788391 211.41397289920519142 1.596209851975103788391 87.92058288450061809
2.009509145207672986544 232.08100598102191725 2.009509145207672986544 95.04946207570799288
2.529822128134725289783 254.30885180474115259 2.529822128134725289783 102.53085191397289577
3.184857364427998049905 278.11386181981566779 3.184857364427998049905 110.13492139725855168
4.009497869018190385759 303.43770048687639473 4.009497869018190385759 117.55811709255290509
5.009497869018204596614 329.23303655405533164 5.009497869018204596614 124.24627791896877227
6.009497869018190385759 351.11576569024117589 6.009497869018190385759 129.15855434400410218
7.009497869018190385759 370.06503975857611977 7.009497869018190385759 132.76504938090130281
8.009497869018204596614 386.71278455231299631 8.009497869018204596614 135.36779474754914077
9.009497869018190385759 401.50302009924723734 9.009497869018190385759 137.16857136873659329
10.009497869018190385759 414.76613785369261223 10.009497869018190385759 138.33666570127718387
11.009497869018204596614 426.74516394414104070 11.009497869018204596614 139.16374783709977692
12.009497869018190385759 437.63112924559027306 12.009497869018190385759 139.59661438482376639
13.009497869018190385759 447.57466913397854569 13.009497869018190385759 139.71112313110501191
14.009497869018204596614 456.69768446973495202 14.009497869018204596614 139.56340093330675245
15.009497869018190385759 465.10048625699619151 15.009497869018190385759 139.16038625759492220
16.009497869018190385759 472.86697843770832606 16.009497869018190385759 138.51695487984332544
17.009497869018190385759 480.05943564657718525 17.009497869018190385759 137.53657529368484802
18.009497869018204596614 486.73481306216388020 18.009497869018204596614 136.40214491427181542
19.009497869018190385759 492.94039100315120550 19.009497869018190385759 134.91164487956388029
20.009497869018190385759 498.71491045375029216 20.009497869018190385759 133.44481795510219513
21.009497869018204596614 504.09269904768603965 21.009497869018204596614 131.87881613632984568
22.009497869018190385759 509.11163938623872127 22.009497869018190385759 130.23736724737744908
23.009497869018190385759 513.81073538788871247 23.009497869018190385759 128.48006007687769170
24.009497869018204596614 518.21618856266854891 24.009497869018204596614 126.71748185740258918
25.009497869018190385759 522.35170488691358059 25.009497869018190385759 124.85955385449571509
26.009497869018190385759 526.23876372833240112 26.009497869018190385759 122.72305241763791628
27.009497869018204596614 529.89491996035621924 27.009497869018204596614 120.53903491015006466
28.009497869018190385759 533.32523491034055496 28.009497869018190385759 118.26647238820190466
29.009497869018190385759 536.53833346897545198 29.009497869018190385759 115.96356146493859285
30.009497869018190385759 539.55127461517986376 30.009497869018190385759 113.65577511736749727
31.009497869018190385759 542.37125306769519284 31.009497869018190385759 111.28534384035478411
32.009497869018190385759 545.02282264872235373 32.009497869018190385759 108.90525908333415828
33.009497869018190385759 547.52568233800195685 33.009497869018190385759 106.56505978024208048
34.009497869018190385759 549.88968824467883678 34.009497869018190385759 104.20540599099166457
35.009497869018190385759 552.12110338292995948 35.009497869018190385759 101.75108730313017702
36.009497869018190385759 554.22838743971226450 36.009497869018190385759 99.46740617078215507
37.009497869018190385759 556.21643882207774823 37.009497869018190385759 97.19945489636910452
38.009497869018190385759 558.08979666767970684 38.009497869018190385759 94.91170299613393979
39.009497869018190385759 559.85262919454237363 39.009497869018190385759 92.57755125047590639
40.009497869018190385759 561.51509383978986989 40.009497869018190385759 90.15120340158375711
41.009497869018190385759 563.08362901210398377 41.009497869018190385759 87.90874279863149354
42.009497869018190385759 564.56412374790829745 42.009497869018190385759 85.60865378085877353
43.009497869018190385759 565.96232900039558444 43.009497869018190385759 83.38460302859445505
44.009497869018190385759 567.28333445690498138 44.009497869018190385759 81.14332201583749793
46.009497869018190385759 569.71183709467629797 46.009497869018190385759 76.81994082738162888
48.009497869018190385759 571.88242786170451382 48.009497869018190385759 72.68729828098626911
50.009497869018218807469 573.82299950895787788 50.009497869018218807469 68.68645430059046930
52.009497869018190385759 575.56026143372969273 52.009497869018190385759 64.83792927000561690
54.009497869018190385759 577.11612192650193265 54.009497869018190385759 61.17282986867685679
56.009497869018190385759 578.51085429758165901 56.009497869018190385759 57.65962239387382482
58.009497869018190385759 579.76155573903270124 58.009497869018190385759 54.31335394449485676
60.009497869018190385759 580.88439623192550698 60.009497869018190385759 51.12981277394499102
62.009497869018190385759 581.89234978537410825 62.009497869018190385759 48.09680920166389484
64.009497869018190385759 582.79872755183089339 64.009497869018190385759 45.21369361729494329
66.009497869018218807469 583.61347533601610849 66.009497869018218807469 42.50689443443997106
68.009497869018190385759 584.34641694021513558 68.009497869018190385759 39.94809622279202443
70.009497869018190385759 585.00619801828406708 70.009497869018190385759 37.49384198792433409
72.009497869018190385759 585.59990066065279279 72.009497869018190385759 35.20989614458790840
74.009497869018218807469 586.13484583938554806 74.009497869018218807469 33.03355538204325370
76.009497869018190385759 586.61700697469393617 76.009497869018190385759 30.97549693002482130
78.009497869018190385759 587.05165840656695764 78.009497869018190385759 29.02572796615640272
80.009497869018218807469 587.44370460126390299 80.009497869018218807469 27.19570185443890509
82.009497869018190385759 587.79724524143659892 82.009497869018190385759 25.45720889473555104
84.009497869018190385759 588.11595833153114654 84.009497869018190385759 23.76182428920196088
86.009497869018218807469 588.40358468404349424 86.009497869018218807469 22.20938764305741131
88.009497869018190385759 588.66315545018960620 88.009497869018190385759 20.69626447936944302
91.009497869018190385759 589.00577760576425135 91.009497869018190385759 18.60281214948914297
94.009497869018190385759 589.29988334260190186 94.009497869018190385759 16.65562988166693259
97.009497869018190385759 589.55172350720033592 97.009497869018190385759 14.89629299285447850
99.504748934509137825444 589.73344091751357610 99.504748934509137825444 12.66020535084987308
nan nan nan nan

