Time Pressure difference Time.1 Pressure.1 difference.1
(hr) (psi) (hr) (psi)
0.000200000000006639311 0.50546880765473279 0.000200000000006639311 0.40515997753291944
0.000399999999999067768 0.94520561153692551 0.000399999999999067768 0.86365589606427129
0.000600000000019917934 1.34975929881671552 0.000600000000019917934 1.18561534015626324
0.000799999999998135536 1.72918130206257947 0.000799999999998135536 1.48441398845283645
0.001007140329448930061 2.10148011208746821 0.001007140329448930061 1.77384092129842030
0.001267914553963578328 2.54605676626306776 0.001267914553963578328 2.11338233428103628
0.001596209851982166583 3.07471594812635685 0.001596209851982166583 2.50722696351222529
0.002009509145210586212 3.70065850016388254 0.002009509145210586212 2.96160246394476889
0.002529822128153114136 4.43855611547571094 0.002529822128153114136 3.48306762072982989
0.003184857364431081805 5.30462872937304386 0.003184857364431081805 4.07853996950968867
0.004009497869020606231 6.31673175959743016 0.004009497869020606231 4.75535849287403956
0.005047658755856332391 7.49446212974734483 0.005047658755856332391 5.52138588808292852
0.006354625877790454069 8.85929226615851562 0.006354625877790454069 6.38514615382529094
0.007999999999995566213 10.43473900528600851 0.007999999999995566213 7.35598701492937668
0.010071403294347192059 12.24657171802700617 0.010071403294347192059 8.44427291779338951
0.012679145539706837553 14.32306914943889176 0.012679145539706837553 9.66166128659861734
0.015962098519764822413 16.69535342905194142 0.015962098519764822413 11.02152952845642631
0.020095091452077440408 19.39784165997727072 0.020095091452077440408 12.53946729747741351
0.025298221281346400247 22.46880393736973502 0.025298221281346400247 14.23338466118943479
0.031848573644282396344 25.95086098694315524 0.031848573644282396344 16.12248676632287214
0.040094978690177640601 29.89106489423328838 0.040094978690177640601 18.22457978761775976
0.050476587558421215363 34.34014944986752482 0.050476587558421215363 20.55200793107357882
0.063546258777947173257 39.35073151966280136 0.063546258777947173257 23.10781808281159400
0.079999999999998294697 44.97478495372217822 0.079999999999998294697 25.88410207777794270
0.100714032943528764008 51.26106575722953096 0.100714032943528764008 28.86286375403330950
0.126791455396883634421 58.25296896209518849 0.126791455396883634421 32.02075486330142695
0.159620985197506115583 65.98811209112891163 0.159620985197506115583 35.33701165493564389
0.200950914520774404082 74.49981403215586795 0.200950914520774404082 38.79452835268947553
0.252982212813464002465 83.81713257469128564 0.252982212813464002465 42.38793845768757507
0.318485736442795541734 93.96999860788827164 0.318485736442795541734 46.13498690246394318
0.400949786901833249431 104.99439124970186299 0.400949786901833249431 50.05027251141014233
0.504765875584169521062 116.92530234722244131 0.504765875584169521062 54.17633598895647395
0.635462587779429100010 129.81598899903909228 0.635462587779429100010 58.56192916310417473
0.800000000000011368684 143.72078366305504460 0.800000000000011368684 63.27513894783376003
1.007140329435344483500 158.71994611613968118 1.007140329435344483500 68.38639394981781550
1.267914553968893187630 174.89437353690388477 1.267914553968893187630 73.94491373323862149
1.596209851975103788391 192.33902797596863365 1.596209851975103788391 79.98789871447048938
2.009509145207672986544 211.14136634363649137 2.009509145207672986544 86.47357076060650627
2.529822128134725289783 231.36369224341112272 2.529822128134725289783 93.27994798188510117
3.184857364427998049905 253.02088180599767497 3.184857364427998049905 100.19793600803222944
4.009497869018190385759 276.05986284896272309 4.009497869018190385759 106.95136968570602676
5.009497869018204596614 299.52780017323834727 5.009497869018204596614 113.03608743003924531
6.009497869018190385759 319.43614773322696010 6.009497869018190385759 117.50515094454509324
7.009497869018190385759 336.67571286306542788 7.009497869018190385759 120.78624793300043905
8.009497869018204596614 351.82140549496136828 8.009497869018204596614 123.15415913122892277
9.009497869018190385759 365.27718369931511688 9.009497869018190385759 124.79245966629419229
10.009497869018190385759 377.34362917516398284 10.009497869018190385759 125.85516202898148208
11.009497869018204596614 388.24184088151179139 11.009497869018204596614 126.60762021269978561
12.009497869018190385759 398.14561382493553765 12.009497869018190385759 127.00143113205768941
13.009497869018190385759 407.19199221963464197 13.009497869018190385759 127.10560826213313135
14.009497869018204596614 415.49187835216486064 14.009497869018204596614 126.97121438293322626
15.009497869018190385759 423.13653260974842851 15.009497869018190385759 126.60456193360140276
16.009497869018190385759 430.20228865385490735 16.009497869018190385759 126.01918451474467986
17.009497869018190385759 436.74580235515674076 17.009497869018190385759 125.12726022959299144
18.009497869018204596614 442.81889007911149747 18.009497869018204596614 124.09518447087884851
19.009497869018190385759 448.46456625098710447 19.009497869018190385759 122.73916564230999882
20.009497869018190385759 453.71807642784796144 20.009497869018190385759 121.40468400426591700
21.009497869018204596614 458.61065101330837024 21.009497869018204596614 119.97997558267603324
22.009497869018190385759 463.17675462958561639 22.009497869018190385759 118.48662734535842844
23.009497869018190385759 467.45187204462058617 23.009497869018190385759 116.88787420527970085
24.009497869018204596614 471.45984072242777074 24.009497869018204596614 115.28432559959182413
25.009497869018190385759 475.22222775425973396 25.009497869018190385759 113.59403019845098015
26.009497869018190385759 478.75857451976111179 26.009497869018190385759 111.65029580852774416
27.009497869018204596614 482.08485199400826104 27.009497869018204596614 109.66333251224178014
28.009497869018190385759 485.20566484324217527 28.009497869018190385759 107.59581322535662196
29.009497869018190385759 488.12885977252648217 29.009497869018190385759 105.50068373877873285
30.009497869018190385759 490.86995660478766013 30.009497869018190385759 103.40111871580050718
31.009497869018190385759 493.43550091121147716 31.009497869018190385759 101.24456093746563567
32.009497869018190385759 495.84783113154429657 32.009497869018190385759 99.07922066980025022
33.009497869018190385759 498.12486889397172263 33.009497869018190385759 96.95016716849089278
34.009497869018190385759 500.27558103463269390 34.009497869018190385759 94.80341447300746438
35.009497869018190385759 502.30566548371820090 35.009497869018190385759 92.57053807277257818
36.009497869018190385759 504.22281864815937524 36.009497869018190385759 90.49290335838075805
37.009497869018190385759 506.03149697346930225 37.009497869018190385759 88.42957926662151635
38.009497869018190385759 507.73583005104694621 38.009497869018190385759 86.34824107167071361
39.009497869018190385759 509.33961001909489141 39.009497869018190385759 84.22468948351567519
40.009497869018190385759 510.85207785424489657 40.009497869018190385759 82.01726023753107597
41.009497869018190385759 512.27909105612468466 41.009497869018190385759 79.97712690702564942
42.009497869018190385759 513.62600731952556998 42.009497869018190385759 77.88456471792414959
43.009497869018190385759 514.89805871464557185 43.009497869018190385759 75.86118019894684039
44.009497869018190385759 516.09987570891360065 44.009497869018190385759 73.82212002944613971
46.009497869018190385759 518.30926532673549900 46.009497869018190385759 69.88881834671560966
48.009497869018190385759 520.28401331779127759 48.009497869018190385759 66.12904580450631897
50.009497869018218807469 522.04949579386391179 50.009497869018218807469 62.48918022835674435
52.009497869018190385759 523.63001228181428814 52.009497869018190385759 58.98789053887729494
54.009497869018190385759 525.04549438426124652 54.009497869018190385759 55.65347679781879009
56.009497869018190385759 526.31438624065697240 56.009497869018190385759 52.45725044856190067
58.009497869018190385759 527.45224243927043517 58.009497869018190385759 49.41290095702164109
60.009497869018190385759 528.47377401551125331 60.009497869018190385759 46.51659658381461071
62.009497869018190385759 529.39078439120510211 62.009497869018190385759 43.75724746918294272
64.009497869018190385759 530.21538371256792743 64.009497869018190385759 41.13426261423073527
66.009497869018218807469 530.95662041848072477 66.009497869018218807469 38.67168591403937228
68.009497869018190385759 531.62343195312814714 68.009497869018190385759 36.34375671396868057
70.009497869018190385759 532.22368391137126764 70.009497869018190385759 34.11093895141988241
72.009497869018190385759 532.76381939803752630 72.009497869018190385759 32.03306340973787059
74.009497869018218807469 533.25049884635825492 74.009497869018218807469 30.05308421975363586
76.009497869018190385759 533.68915672133812222 76.009497869018190385759 28.18071525212784323
78.009497869018190385759 534.08459148266615557 78.009497869018190385759 26.40686529251822989
80.009497869018218807469 534.44126508836791345 80.009497869018218807469 24.74195431870005635
82.009497869018190385759 534.76290732491600011 82.009497869018190385759 23.16031786663911163
84.009497869018190385759 535.05286434673121221 84.009497869018190385759 21.61790029318374096
86.009497869018218807469 535.31453944939300982 86.009497869018218807469 20.20553311887178083
88.009497869018190385759 535.55069029678907100 88.009497869018190385759 18.82893234589250042
91.009497869018190385759 535.86239917516900277 91.009497869018190385759 16.92436293299387629
94.009497869018190385759 536.12996905605132270 94.009497869018190385759 15.15286628332104257
97.009497869018190385759 536.35908679978365399 97.009497869018190385759 13.55226655740896291
99.504748934509137825444 536.52440865427934114 99.504748934509137825444 11.51793118385589842
nan nan nan nan

