Time Pressure difference Time.1 Pressure.1 difference.1
(hr) (psi) (hr) (psi)
0.000200000000006639311 0.17962941098473978 0.000200000000006639311 0.14398247135467382
0.000399999999999067768 0.33589951484370079 0.000399999999999067768 0.30691903744432780
0.000600000000019917934 0.47966652767866746 0.000600000000019917934 0.42133437708032501
0.000799999999998135536 0.61450244618752836 0.000799999999998135536 0.52751902068985090
0.001007140329448930061 0.74680698198149698 0.001007140329448930061 0.63037321996555429
0.001267914553963578328 0.90479703263894151 0.001267914553963578328 0.75103669730648392
0.001596209851982166583 1.09266765098705254 0.001596209851982166583 0.89099801182665850
0.002009509145210586212 1.31511004551278465 0.002009509145210586212 1.05247029710433937
0.002529822128153114136 1.57733812368145099 0.002529822128153114136 1.23778436108580725
0.003184857364431081805 1.88511599473587510 0.003184857364431081805 1.44939850156129424
0.004009497869020606231 2.24478897241892117 0.004009497869020606231 1.68992078672383217
0.005047658755856332391 2.66332125272013087 0.005047658755856332391 1.96214539824434642
0.006354625877790454069 3.14834353260178679 0.006354625877790454069 2.26910152573956569
0.007999999999995566213 3.70821303493635046 0.007999999999995566213 2.61411108795010927
0.010071403294347192059 4.35208747004265550 0.010071403294347192059 3.00085731789351895
0.012679145539706837553 5.09001630930472970 0.012679145539706837553 3.43348293655983916
0.015962098519764822413 5.93305948305151531 0.015962098519764822413 3.91674189854236632
0.020095091452077440408 6.89344786263655163 0.020095091452077440408 4.45617432885561016
0.025298221281346400247 7.98478156451982368 0.025298221281346400247 5.05814496224087407
0.031848573644282396344 9.22220679701285739 0.031848573644282396344 5.72947876819738422
0.040094978690177640601 10.62244454919034276 0.040094978690177640601 6.47650356088895673
0.050476587558421215363 12.20352418466366728 0.050476587558421215363 7.30360612426581834
0.063546258777947173257 13.98414425905372305 0.063546258777947173257 8.21186923604048324
0.079999999999998294697 15.98277481826490742 0.079999999999998294697 9.19848255656571467
0.100714032943528764008 18.21674237653611073 0.100714032943528764008 10.25705075556555634
0.126791455396883634421 20.70146830884374367 0.126791455396883634421 11.37927652166910164
0.159620985197506115583 23.45032082577308330 0.159620985197506115583 12.55778100134076425
0.200950914520774404082 26.47514052382398475 0.200950914520774404082 13.78648528236072224
0.252982212813464002465 29.78625372489029388 0.252982212813464002465 15.06348226182285721
0.318485736442795541734 33.39429702594376437 0.318485736442795541734 16.39507799013181710
0.400949786901833249431 37.31205639452215195 0.400949786901833249431 17.78646047926145357
0.504765875584169521062 41.55196694983938244 0.504765875584169521062 19.25274750020767200
0.635462587779429100010 46.13295476825355479 0.635462587779429100010 20.81126408275602913
0.800000000000011368684 51.07432807860634227 0.800000000000011368684 22.48620640294918616
1.007140329435344483500 56.40460895036369493 1.007140329435344483500 24.30260280861294220
1.267914553968893187630 62.15254596766006046 1.267914553968893187630 26.27794454982860373
1.596209851975103788391 68.35188597493099394 1.596209851975103788391 28.42545160927463499
2.009509145207672986544 75.03370870063115206 2.009509145207672986544 30.73027721244694277
2.529822128134725289783 82.22015509476594275 2.529822128134725289783 33.14907242331454285
3.184857364427998049905 89.91651171618099170 3.184857364427998049905 35.60753097806103540
4.009497869018190385759 98.10391820252395689 4.009497869018190385759 38.00751154120131758
5.009497869018204596614 106.44376369792767889 5.009497869018204596614 40.16984925199741241
6.009497869018190385759 113.51863101263435851 6.009497869018190385759 41.75802884806147830
7.009497869018190385759 119.64508804224639960 7.009497869018190385759 42.92403852164478195
8.009497869018204596614 125.02744162217635449 8.009497869018204596614 43.76552762514746320
9.009497869018190385759 129.80924709975661813 9.009497869018190385759 44.34773360041860002
10.009497869018190385759 134.09732276472772128 10.009497869018190385759 44.72538815905953413
11.009497869018204596614 137.97024097442155721 11.009497869018204596614 44.99279065409992739
12.009497869018190385759 141.48976359067955855 12.009497869018190385759 45.13273998907835249
13.009497869018190385759 144.70459227639909727 13.009497869018190385759 45.16976161381590771
14.009497869018204596614 147.65413858795940882 14.009497869018204596614 45.12200180550519946
15.009497869018190385759 150.37083390263785532 15.009497869018190385759 44.99170382764347664
16.009497869018190385759 152.88180505880797000 16.009497869018190385759 44.78367714160348356
17.009497869018190385759 155.20718596092345365 17.009497869018190385759 44.46671231299585259
18.009497869018204596614 157.36539068927103813 18.009497869018204596614 44.09994158882471993
19.009497869018190385759 159.37170536192104464 19.009497869018190385759 43.61805060015975499
20.009497869018190385759 161.23865525948318123 20.009497869018190385759 43.14381332383003098
21.009497869018204596614 162.97733878985337697 21.009497869018204596614 42.63751198392618846
22.009497869018190385759 164.60000371134034935 22.009497869018190385759 42.10681798223481564
23.009497869018190385759 166.11926031337756626 23.009497869018190385759 41.53866603989278872
24.009497869018204596614 167.54357976086274107 24.009497869018204596614 40.96880992382188680
25.009497869018190385759 168.88062639200964554 25.009497869018190385759 40.36812643416026702
26.009497869018190385759 170.13734466404730483 26.009497869018190385759 39.67737784931151168
27.009497869018204596614 171.31941021274673176 27.009497869018204596614 38.97126692583798757
28.009497869018190385759 172.42845940710256514 28.009497869018190385759 38.23652866686227014
29.009497869018190385759 173.46728074560857635 29.009497869018190385759 37.49197851873954335
30.009497869018190385759 174.44138953723859231 30.009497869018190385759 36.74585210561505022
31.009497869018190385759 175.35311189406687049 31.009497869018190385759 35.97947206868612824
32.009497869018190385759 176.21038626988766396 32.009497869018190385759 35.20997098182984075
33.009497869018190385759 177.01958150777508649 33.009497869018190385759 34.45336519210833615
34.009497869018190385759 177.78388416933228200 34.009497869018190385759 33.69046960611008501
35.009497869018190385759 178.50531913884202595 35.009497869018190385759 32.89696807544810753
36.009497869018190385759 179.18662150306488456 36.009497869018190385759 32.15863507777167030
37.009497869018190385759 179.82937495751386336 37.009497869018190385759 31.42538767326218974
38.009497869018190385759 180.43504704293403051 38.009497869018190385759 30.68573856265983935
39.009497869018190385759 181.00498537868659810 39.009497869018190385759 29.93108799827416533
40.009497869018190385759 181.54247394820274053 40.009497869018190385759 29.14662967118873382
41.009497869018190385759 182.04959434225918358 41.009497869018190385759 28.42162361158763062
42.009497869018190385759 182.52825053503801200 42.009497869018190385759 27.67798580884907622
43.009497869018190385759 182.98030185727074581 43.009497869018190385759 26.95893180623730601
44.009497869018190385759 183.40739384696931324 44.009497869018190385759 26.23430711790235037
46.009497869018190385759 184.19254883512090260 46.009497869018190385759 24.83652222238654161
48.009497869018190385759 184.89431878235561157 48.009497869018190385759 23.50040470738654008
50.009497869018218807469 185.52172164575330271 50.009497869018218807469 22.20689875883751796
52.009497869018190385759 186.08339279436376046 52.009497869018190385759 20.96263878654317026
54.009497869018190385759 186.58641535969613301 54.009497869018190385759 19.77768183724138495
56.009497869018190385759 187.03734387064670841 56.009497869018190385759 18.64183280403439724
58.009497869018190385759 187.44170599081508044 58.009497869018190385759 17.55995653844570370
60.009497869018190385759 187.80472960881806443 60.009497869018190385759 16.53069134796717776
62.009497869018190385759 188.13060932910593692 62.009497869018190385759 15.55009620805674508
64.009497869018190385759 188.42364875735884766 64.009497869018190385759 14.61796109431340263
66.009497869018218807469 188.68706345450144113 66.009497869018218807469 13.74283053143548194
68.009497869018190385759 188.92402953706206858 68.009497869018190385759 12.91554990661696856
70.009497869018190385759 189.13734221643773026 70.009497869018190385759 12.12206921414095007
72.009497869018190385759 189.32929119103812354 72.009497869018190385759 11.38365063321263193
74.009497869018218807469 189.50224339168102006 74.009497869018218807469 10.68002166487112703
76.009497869018190385759 189.65813007452510419 76.009497869018190385759 10.01463434579749823
78.009497869018190385759 189.79865647731111267 78.009497869018190385759 9.38425791387011543
80.009497869018218807469 189.92540825454400988 80.009497869018218807469 8.79259533639754132
82.009497869018190385759 190.03971086753210784 82.009497869018190385759 8.23052618401224656
84.009497869018190385759 190.14275344553260538 84.009497869018190385759 7.68239431906529546
86.009497869018218807469 190.23574542416443478 86.009497869018218807469 7.18047871166517737
88.009497869018190385759 190.31966679968539324 88.009497869018190385759 6.69127347829237618
91.009497869018190385759 190.43043937629971651 91.009497869018190385759 6.01444302577468459
94.009497869018190385759 190.52552619347281393 94.009497869018190385759 5.38490289407276723
97.009497869018190385759 190.60694820157601725 97.009497869018190385759 4.81609472701310182
99.504748934509137825444 190.66569894325627388 99.504748934509137825444 4.09314909839507202
nan nan nan nan

