Time Pressure difference Time.1 Pressure.1 difference.1
(hr) (psi) (hr) (psi)
0.000200000000006639311 0.15386860398305227 0.000200000000006639311 0.12333382236194929
0.000399999999999067768 0.28772787899402275 0.000399999999999067768 0.26290351657052885
0.000600000000019917934 0.41087714192630043 0.000600000000019917934 0.36091045478585976
0.000799999999998135536 0.52637612638544085 0.000799999999998135536 0.45186706811029864
0.001007140329448930061 0.63970675588337533 0.001007140329448930061 0.53997085896274222
0.001267914553963578328 0.77503931865583753 0.001267914553963578328 0.64332988412687186
0.001596209851982166583 0.93596725142689385 0.001596209851982166583 0.76321922718485102
0.002009509145210586212 1.12650899247412961 0.002009509145210586212 0.90153463434131387
0.002529822128153114136 1.35113071834728937 0.002529822128153114136 1.06027265038745511
0.003184857364431081805 1.61476990246755192 0.003184857364431081805 1.24153902653118609
0.004009497869020606231 1.92286187172318468 0.004009497869020606231 1.44756780568204246
0.005047658755856332391 2.28137208081840637 0.005047658755856332391 1.68075245353488611
0.006354625877790454069 2.69683690195734416 0.006354625877790454069 1.94368774104048092
0.007999999999995566213 3.17641504155400556 0.007999999999995566213 2.23921918774020989
0.010071403294347192059 3.72795089488149944 0.010071403294347192059 2.57050181106382825
0.012679145539706837553 4.36005273006335425 0.012679145539706837553 2.94108422085164500
0.015962098519764822413 5.08219436338908892 0.015962098519764822413 3.35503860301497259
0.020095091452077440408 5.90485262652200671 0.020095091452077440408 3.81711056851585173
0.025298221281346400247 6.83967723162356922 0.025298221281346400247 4.33275208005904311
0.031848573644282396344 7.89964225635597472 0.031848573644282396344 4.90780933244814666
0.040094978690177640601 9.09907071849250215 0.040094978690177640601 5.54770266262193523
0.050476587558421215363 10.45340637523515781 0.050476587558421215363 6.25618974210366563
0.063546258777947173257 11.97866620639873325 0.063546258777947173257 7.03419806653080126
0.079999999999998294697 13.69067145285482212 0.079999999999998294697 7.87932032946133010
0.100714032943528764008 15.60426381866077961 0.100714032943528764008 8.78607836038755075
0.126791455396883634421 17.73265308625762771 0.126791455396883634421 9.74736477243748745
0.159620985197506115583 20.08729031975136081 0.159620985197506115583 10.75685891975313524
0.200950914520774404082 22.67831804560116282 0.200950914520774404082 11.80935367209968945
0.252982212813464002465 25.51458167907269470 0.252982212813464002465 12.90321542582500491
0.318485736442795541734 28.60519241369601673 0.318485736442795541734 14.04384587526794981
0.400949786901833249431 31.96110257050153081 0.400949786901833249431 15.23568901518132535
0.504765875584169521062 35.59296393765311706 0.504765875584169521062 16.49169456413137880
0.635462587779429100010 39.51698838675982728 0.635462587779429100010 17.82670295460884446
0.800000000000011368684 43.74971513710077886 0.800000000000011368684 19.26144036841771623
1.007140329435344483500 48.31557588383866886 1.007140329435344483500 20.81734581668007777
1.267914553968893187630 53.23919635214291901 1.267914553968893187630 22.50940211438806671
1.596209851975103788391 58.54948372271221047 1.596209851975103788391 24.34893335523137381
2.009509145207672986544 64.27306055364141457 2.009509145207672986544 26.32322195329757619
2.529822128134725289783 70.42889254241578101 2.529822128134725289783 28.39513568043610192
3.184857364427998049905 77.02150809796899011 3.184857364427998049905 30.50102459748638850
4.009497869018190385759 84.03475163859610575 4.009497869018190385759 32.55682190157166644
5.009497869018204596614 91.17857278000781207 5.009497869018204596614 34.40905691740864114
6.009497869018190385759 97.23882734027982622 6.009497869018190385759 35.76947432333948029
7.009497869018190385759 102.48668394316455021 7.009497869018190385759 36.76826555536239738
8.009497869018204596614 107.09714960659293581 8.009497869018204596614 37.48907598898291127
9.009497869018190385759 111.19319228312485848 9.009497869018190385759 37.98778730888570010
10.009497869018190385759 114.86631136048380597 10.009497869018190385759 38.31128210524092026
11.009497869018204596614 118.18381106723705898 11.009497869018204596614 38.54033618044994114
12.009497869018190385759 121.19859594395420288 12.009497869018190385759 38.66021526196247038
13.009497869018190385759 123.95238330652789216 13.009497869018190385759 38.69192758392757980
14.009497869018204596614 126.47893266643033883 14.009497869018204596614 38.65101705045212555
15.009497869018190385759 128.80602438946888810 15.009497869018190385759 38.53940521670235597
16.009497869018190385759 130.95689503099441708 16.009497869018190385759 38.36121181509445677
17.009497869018190385759 132.94879107505460070 17.009497869018190385759 38.08970318283753187
18.009497869018204596614 134.79748582298023507 18.009497869018204596614 37.77553136097001385
19.009497869018190385759 136.51607319761455983 19.009497869018190385759 37.36274876990428595
20.009497869018190385759 138.11528221839449770 20.009497869018190385759 36.95652226576138588
21.009497869018204596614 139.60461966107595799 21.009497869018204596614 36.52283003274298068
22.009497869018190385759 140.99457682250471180 22.009497869018190385759 36.06824331036393261
23.009497869018190385759 142.29595553975363487 23.009497869018190385759 35.58157052254382080
24.009497869018204596614 143.51601212073904890 24.009497869018204596614 35.09343795800246824
25.009497869018190385759 144.66131175439585377 25.009497869018190385759 34.57889899980395398
26.009497869018190385759 145.73780298742039463 26.009497869018190385759 33.98721125851877645
27.009497869018204596614 146.75034750781793491 27.009497869018204596614 33.38236430469068239
28.009497869018190385759 147.70034701151035961 28.009497869018190385759 32.75299548595566534
29.009497869018190385759 148.59019009604455164 29.009497869018190385759 32.11522190946294586
30.009497869018190385759 149.42460111523152477 30.009497869018190385759 31.47609812147646124
31.009497869018190385759 150.20557259142938733 31.009497869018190385759 30.81962529914586923
32.009497869018190385759 150.93990451800453911 32.009497869018190385759 30.16047901931936082
33.009497869018190385759 151.63305237681507265 33.009497869018190385759 29.51237871106954458
34.009497869018190385759 152.28774574194741831 34.009497869018190385759 28.85889063159042323
35.009497869018190385759 152.90571910730264449 35.009497869018190385759 28.17918583206988714
36.009497869018190385759 153.48931531851681598 36.009497869018190385759 27.54673779917651188
37.009497869018190385759 154.03989095197891857 37.009497869018190385759 26.91864603019745772
38.009497869018190385759 154.55870308716444583 38.009497869018190385759 26.28507062925513793
39.009497869018190385759 155.04690608019279807 39.009497869018190385759 25.63864514580848919
40.009497869018190385759 155.50731295563102208 40.009497869018190385759 24.96668665632833140
41.009497869018190385759 155.94170678154759457 41.009497869018190385759 24.34565433395684408
42.009497869018190385759 156.35171848156355168 42.009497869018190385759 23.70866226261878040
43.009497869018190385759 156.73894073820477502 43.009497869018190385759 23.09272840766838897
44.009497869018190385759 157.10478310147371417 44.009497869018190385759 22.47202276378457242
46.009497869018190385759 157.77733834326247120 46.009497869018190385759 21.27469539204428628
48.009497869018190385759 158.37846686395576512 48.009497869018190385759 20.13019162919544414
50.009497869018218807469 158.91589334771890663 50.009497869018218807469 19.02218847171740990
52.009497869018190385759 159.39701475796275076 52.009497869018190385759 17.95636888304667167
54.009497869018190385759 159.82789842826684890 54.009497869018190385759 16.94134762027265850
56.009497869018190385759 160.21415889694932844 56.009497869018190385759 15.96839166547132294
58.009497869018190385759 160.56053110065943201 58.009497869018190385759 15.04166819766085794
60.009497869018190385759 160.87149319204954168 60.009497869018190385759 14.16001080581684590
62.009497869018190385759 161.15063822376902181 62.009497869018190385759 13.32004365108736899
64.009497869018190385759 161.40165261773762495 64.009497869018190385759 12.52158682884985197
66.009497869018218807469 161.62729078854582099 66.009497869018218807469 11.77195948622961730
68.009497869018190385759 161.83027336314231093 68.009497869018190385759 11.06331988124941823
70.009497869018190385759 162.01299468927416569 70.009497869018190385759 10.38363293149282995
72.009497869018190385759 162.17741609774972744 72.009497869018190385759 9.75111158891469643
74.009497869018218807469 162.32556507581978167 74.009497869018218807469 9.14839065091674009
76.009497869018190385759 162.45909591655058080 76.009497869018190385759 8.57842709465599640
78.009497869018190385759 162.57946930808432739 78.009497869018190385759 8.03845348436160911
80.009497869018218807469 162.68804350486132648 80.009497869018218807469 7.53164174164285516
82.009497869018190385759 162.78595388265347310 82.009497869018190385759 7.05017940568490875
84.009497869018190385759 162.87421903667714673 84.009497869018190385759 6.58065559888926543
86.009497869018218807469 162.95387495635790742 86.009497869018218807469 6.15072013673645035
88.009497869018190385759 163.02576109585453423 88.009497869018190385759 5.73167224303339218
91.009497869018190385759 163.12064768279935834 91.009497869018190385759 5.15190662285350864
94.009497869018190385759 163.20209801843986952 94.009497869018190385759 4.61264937825612975
97.009497869018190385759 163.27184322693139507 97.009497869018190385759 4.12541447546471129
99.504748934509137825444 163.32216847464977150 99.504748934509137825444 3.50614709591205775
nan nan nan nan

