Time Pressure difference Time.1 Pressure.1 difference.1
(hr) (psi) (hr) (psi)
0.000200000000006639311 0.00139247605414527 0.000200000000006639311 0.00111614318879592
0.000399999999999067768 0.00260387220809070 0.000399999999999067768 0.00237921734452967
0.000600000000019917934 0.00371834517580362 0.000600000000019917934 0.00326615796186298
0.000799999999998135536 0.00476358485416689 0.000799999999998135536 0.00408929473402985
0.001007140329448930061 0.00578920141070928 0.001007140329448930061 0.00488661410826011
0.001267914553963578328 0.00701393048557319 0.001267914553963578328 0.00582198990160065
0.001596209851982166583 0.00847029186811669 0.001596209851982166583 0.00690696133198960
0.002009509145210586212 0.01019465151560298 0.002009509145210586212 0.00815868447367705
0.002529822128153114136 0.01222742731536008 0.002529822128153114136 0.00959522760531634
0.003184857364431081805 0.01461330228477423 0.003184857364431081805 0.01123564729892476
0.004009497869020606231 0.01740146490247226 0.004009497869020606231 0.01310016113739405
0.005047658755856332391 0.02064590118387698 0.005047658755856332391 0.01521042944375462
0.006354625877790454069 0.02440576381861850 0.006354625877790454069 0.01758993430805865
0.007999999999995566213 0.02874583748012675 0.007999999999995566213 0.02026442703837294
0.010071403294347192059 0.03373711217087329 0.010071403294347192059 0.02326245982863193
0.012679145539706837553 0.03945749076980411 0.012679145539706837553 0.02661614679503751
0.015962098519764822413 0.04599270917094198 0.015962098519764822413 0.03036234029877804
0.020095091452077440408 0.05343758033051590 0.020095091452077440408 0.03454398704539233
0.025298221281346400247 0.06189753150790561 0.025298221281346400247 0.03921042606388275
0.031848573644282396344 0.07148997517064230 0.031848573644282396344 0.04441456409455336
0.040094978690177640601 0.08234453138907241 0.040094978690177640601 0.05020545396037950
0.050476587558421215363 0.09460096267181138 0.050476587558421215363 0.05661710173849471
0.063546258777947173257 0.10840421906243197 0.063546258777947173257 0.06365790105457739
0.079999999999998294697 0.12389747921135587 0.079999999999998294697 0.07130606632996679
0.100714032943528764008 0.14121505718245050 0.100714032943528764008 0.07951202136097331
0.126791455396883634421 0.16047649851816856 0.126791455396883634421 0.08821144590441164
0.159620985197506115583 0.18178543275793088 0.159620985197506115583 0.09734713954527725
0.200950914520774404082 0.20523364747150374 0.200950914520774404082 0.10687197893302887
0.252982212813464002465 0.23090119166581624 0.252982212813464002465 0.11677118032420820
0.318485736442795541734 0.25887051958095941 0.318485736442795541734 0.12709362783047920
0.400949786901833249431 0.28924074724435778 0.400949786901833249431 0.13787953859892602
0.504765875584169521062 0.32210827092898747 0.504765875584169521062 0.14924610465277266
0.635462587779429100010 0.35761980440506630 0.635462587779429100010 0.16132762854849633
0.800000000000011368684 0.39592502386516543 0.800000000000011368684 0.17431167754224175
1.007140329435344483500 0.43724503062297437 1.007140329435344483500 0.18839226983420884
1.267914553968893187630 0.48180268191984543 1.267914553968893187630 0.20370499651029925
1.596209851975103788391 0.52985958120101551 1.596209851975103788391 0.22035233805639251
2.009509145207672986544 0.58165665659403998 2.009509145207672986544 0.23821920319726311
2.529822128134725289783 0.63736554337027851 2.529822128134725289783 0.25696955366910501
3.184857364427998049905 0.69702722260605421 3.184857364427998049905 0.27602737192295379
4.009497869018190385759 0.76049548994204608 4.009497869018190385759 0.29463187241241329
5.009497869018204596614 0.82514545502269521 5.009497869018204596614 0.31139418024804200
6.009497869018190385759 0.87998938769484003 6.009497869018190385759 0.32370564998497270
7.009497869018190385759 0.92748130265307283 7.009497869018190385759 0.33274448466391304
8.009497869018204596614 0.96920497381532067 8.009497869018204596614 0.33926765600889508
9.009497869018190385759 1.00627323333144658 9.009497869018190385759 0.34378088062340001
10.009497869018190385759 1.03951412995912951 10.009497869018190385759 0.34670843534154677
11.009497869018204596614 1.06953675173970186 11.009497869018204596614 0.34878132289999941
12.009497869018190385759 1.09681987279596571 12.009497869018190385759 0.34986620146572367
13.009497869018190385759 1.12174102539844256 13.009497869018190385759 0.35015319080477447
14.009497869018204596614 1.14460572548805750 14.009497869018204596614 0.34978295973259843
15.009497869018190385759 1.16566537909021606 15.009497869018190385759 0.34877289788870913
16.009497869018190385759 1.18513027177370511 16.009497869018190385759 0.34716028791940684
17.009497869018190385759 1.20315648031723610 17.009497869018190385759 0.34470319622477408
18.009497869018204596614 1.21988674952923293 18.009497869018204596614 0.34186001231647067
19.009497869018190385759 1.23543957644900049 19.009497869018190385759 0.33812442325705233
20.009497869018190385759 1.24991205627506319 20.009497869018190385759 0.33444816530100802
21.009497869018204596614 1.26339022317715810 21.009497869018204596614 0.33052334871260614
22.009497869018190385759 1.27596902101814225 22.009497869018190385759 0.32640944172275049
23.009497869018190385759 1.28774620397967099 23.009497869018190385759 0.32200516309994409
24.009497869018204596614 1.29878744000668811 24.009497869018204596614 0.31758767382807662
25.009497869018190385759 1.30915214257371826 25.009497869018190385759 0.31293121266790902
26.009497869018190385759 1.31889414468253729 26.009497869018190385759 0.30757657247528303
27.009497869018204596614 1.32805744350966481 27.009497869018204596614 0.30210284438634100
28.009497869018190385759 1.33665472408606645 28.009497869018190385759 0.29640719896792456
29.009497869018190385759 1.34470760267913625 29.009497869018190385759 0.29063549239332981
30.009497869018190385759 1.35225883362200472 30.009497869018190385759 0.28485156671019424
31.009497869018190385759 1.35932644879121622 31.009497869018190385759 0.27891063619136536
32.009497869018190385759 1.36597198658827623 32.009497869018190385759 0.27294551148705304
33.009497869018190385759 1.37224481788972930 33.009497869018190385759 0.26708035032642125
34.009497869018190385759 1.37816964472350589 34.009497869018190385759 0.26116643105511694
35.009497869018190385759 1.38376216386699236 35.009497869018190385759 0.25501525639882250
36.009497869018190385759 1.38904357754313867 36.009497869018190385759 0.24929174478892768
37.009497869018190385759 1.39402616246134792 37.009497869018190385759 0.24360765638187745
38.009497869018190385759 1.39872129490646535 38.009497869018190385759 0.23787394234620032
39.009497869018190385759 1.40313942154020621 39.009497869018190385759 0.23202393797111756
40.009497869018190385759 1.40730599959847069 40.009497869018190385759 0.22594286566812971
41.009497869018190385759 1.41123716544386957 41.009497869018190385759 0.22032266365571804
42.009497869018190385759 1.41494767856618608 42.009497869018190385759 0.21455802952596184
43.009497869018190385759 1.41845195238194366 43.009497869018190385759 0.20898396749021167
44.009497869018190385759 1.42176274299976213 44.009497869018190385759 0.20336672184420426
46.009497869018190385759 1.42784921577613089 46.009497869018190385759 0.19253118001850034
48.009497869018190385759 1.43328929288647755 48.009497869018190385759 0.18217367990222122
50.009497869018218807469 1.43815288097483185 50.009497869018218807469 0.17214650200649240
52.009497869018190385759 1.44250692088654064 52.009497869018190385759 0.16250107586467574
54.009497869018190385759 1.44640632061779950 54.009497869018190385759 0.15331536307939059
56.009497869018190385759 1.44990189047012952 56.009497869018190385759 0.14451033181422013
58.009497869018190385759 1.45303648054895418 58.009497869018190385759 0.13612369409647834
60.009497869018190385759 1.45585061712262043 60.009497869018190385759 0.12814489417028821
62.009497869018190385759 1.45837681650469708 62.009497869018190385759 0.12054338145780424
64.009497869018190385759 1.46064843997952609 64.009497869018190385759 0.11331752786289459
66.009497869018218807469 1.46269041437598024 66.009497869018218807469 0.10653357001112776
68.009497869018190385759 1.46452736075241918 68.009497869018190385759 0.10012054191175945
70.009497869018190385759 1.46618094741424598 70.009497869018190385759 0.09396952879179031
72.009497869018190385759 1.46766892396153592 72.009497869018190385759 0.08824535374583435
74.009497869018218807469 1.46900963869520185 74.009497869018218807469 0.08279086561915602
76.009497869018190385759 1.47021806259321797 76.009497869018190385759 0.07763282438602712
78.009497869018190385759 1.47130741455279934 78.009497869018190385759 0.07274618537883810
80.009497869018218807469 1.47228998646933329 80.009497869018218807469 0.06815965377052358
82.009497869018190385759 1.47317605323668310 82.009497869018190385759 0.06380252855823447
84.009497869018190385759 1.47397483291110554 84.009497869018190385759 0.05955344433383950
86.009497869018218807469 1.47469570096251523 86.009497869018218807469 0.05566262567182308
88.009497869018190385759 1.47534625426112709 88.009497869018190385759 0.05187033704102617
91.009497869018190385759 1.47620495640542426 91.009497869018190385759 0.04662358934709058
94.009497869018190385759 1.47694206351529300 94.009497869018190385759 0.04174343328738579
97.009497869018190385759 1.47757324187268235 97.009497869018190385759 0.03733406765126436
99.504748934509137825444 1.47802867397873094 99.504748934509137825444 0.03172983797205482
nan nan nan nan

