Time Pressure difference Time.1 Pressure.1 difference.1
(hr) (psi) (hr) (psi)
0.000200000000006639311 0.41704657821650820 0.000200000000006639311 0.33428488504437837
0.000399999999999067768 0.77985972632316591 0.000399999999999067768 0.71257559468663700
0.000600000000019917934 1.11364438015318545 0.000600000000019917934 0.97821430957796385
0.000799999999998135536 1.42669366382298235 0.000799999999998135536 1.22474377284194080
0.001007140329448930061 1.73386582250742904 0.001007140329448930061 1.46354092542390313
0.001267914553963578328 2.10067218042917059 0.001267914553963578328 1.74368597552939475
0.001596209851982166583 2.53685241450094789 0.001596209851982166583 2.06863491893088547
0.002009509145210586212 3.05329812892309338 0.002009509145210586212 2.44352599986627617
0.002529822128153114136 3.66211448095034564 0.002529822128153114136 2.87377066779224277
0.003184857364431081805 4.37668403428988029 0.003184857364431081805 3.36507636602796589
0.004009497869020606231 5.21173873829044165 0.004009497869020606231 3.92349826064951746
0.005047658755856332391 6.18344740457115538 0.005047658755856332391 4.55552361840450981
0.006354625877790454069 7.30952626367624170 0.006354625877790454069 5.26818532526356620
0.007999999999995566213 8.60937832529796054 0.007999999999995566213 6.06919589799269499
0.010071403294347192059 10.10426509517655269 0.010071403294347192059 6.96710671867526266
0.012679145539706837553 11.81751848555633089 0.012679145539706837553 7.97153596511373497
0.015962098519764822413 13.77481639669712266 0.015962098519764822413 9.09352091948402119
0.020095091452077440408 16.00455530898951295 0.020095091452077440408 10.34592412009500073
0.025298221281346400247 18.53831068661772719 0.025298221281346400247 11.74352260613288124
0.031848573644282396344 21.41124756360737180 0.031848573644282396344 13.30216194631873350
0.040094978690177640601 24.66218715102718662 0.040094978690177640601 15.03653346113366140
0.050476587558421215363 28.33298832020750524 0.050476587558421215363 16.95682197067916519
0.063546258777947173257 32.46706360919837664 0.063546258777947173257 19.06554136584592740
0.079999999999998294697 37.10729502380107903 0.079999999999998294697 21.35616686582505253
0.100714032943528764008 42.29390962614392180 0.100714032943528764008 23.81385039761150324
0.126791455396883634421 48.06271130619148124 0.126791455396883634421 26.41932804837128757
0.159620985197506115583 54.44473711100030044 0.159620985197506115583 29.15546829381053584
0.200950914520774404082 61.46747741771537932 0.200950914520774404082 32.00815769044213965
0.252982212813464002465 69.15490690391196438 0.252982212813464002465 34.97296850710035443
0.318485736442795541734 77.53172061449734542 0.318485736442795541734 38.06454153522851414
0.400949786901833249431 86.62760379968514712 0.400949786901833249431 41.29492181037834087
0.504765875584169521062 96.47142714323173607 0.504765875584169521062 44.69920834350541128
0.635462587779429100010 107.10713141931735493 0.635462587779429100010 48.31762475027465342
0.800000000000011368684 118.57954464761705538 0.800000000000011368684 52.20634742390139849
1.007140329435344483500 130.95488667158082308 1.007140329435344483500 56.42348481534554594
1.267914553968893187630 144.29990323499367832 1.267914553968893187630 61.00964645483462334
1.596209851975103788391 158.69294456970413876 1.596209851975103788391 65.99552524788956021
2.009509145207672986544 174.20616864991495731 2.009509145207672986544 71.34665135758029919
2.529822128134725289783 190.89098023939843074 2.529822128134725289783 76.96238132389694897
3.184857364427998049905 208.75965317051324632 3.184857364427998049905 82.67019789092465487
4.009497869018190385759 227.76839923764282503 4.009497869018190385759 88.24224578751778836
5.009497869018204596614 247.13106377929722157 5.009497869018204596614 93.26255698428857954
6.009497869018190385759 263.55682161460458701 6.009497869018190385759 96.94984217049932340
7.009497869018190385759 277.78065014459531312 7.009497869018190385759 99.65697315684195701
8.009497869018204596614 290.27688965768851403 8.009497869018204596614 101.61066297466408059
9.009497869018190385759 301.37883338276827772 9.009497869018190385759 102.96237374670830889
10.009497869018190385759 311.33448192275926658 10.009497869018190385759 103.83917638479327650
11.009497869018204596614 320.32625714604074574 11.009497869018204596614 104.46000620854982799
12.009497869018190385759 328.49755190239170588 12.009497869018190385759 104.78492733898423239
13.009497869018190385759 335.96143710683355721 13.009497869018190385759 104.87088064602994564
14.009497869018204596614 342.80941478367321906 14.009497869018204596614 104.75999643991323751
15.009497869018190385759 349.11678103751967228 15.009497869018190385759 104.45748291766838634
16.009497869018190385759 354.94651639622469474 16.009497869018190385759 103.97450623186234964
17.009497869018190385759 360.34536585501223271 17.009497869018190385759 103.23860726931982867
18.009497869018204596614 365.35608148400524442 18.009497869018204596614 102.38707368878296222
19.009497869018190385759 370.01415314647562127 19.009497869018190385759 101.26826476548717437
20.009497869018190385759 374.34866085438142136 20.009497869018190385759 100.16722550765190647
21.009497869018204596614 378.38537184155882187 21.009497869018204596614 98.99174293942553504
22.009497869018190385759 382.15272179493359772 22.009497869018190385759 97.75962779596378027
23.009497869018190385759 385.67998809191146847 23.009497869018190385759 96.44054634843325857
24.009497869018204596614 388.98683828200307744 24.009497869018204596614 95.11750831150895635
25.009497869018190385759 392.09106670082860546 25.009497869018190385759 93.72289819403874844
26.009497869018190385759 395.00879633241999045 26.009497869018190385759 92.11918345634727245
27.009497869018204596614 397.75320433114455909 27.009497869018204596614 90.47980189370913706
28.009497869018190385759 400.32808986377693827 28.009497869018190385759 88.77395609089340667
29.009497869018190385759 402.73992700240131626 29.009497869018190385759 87.04532997180227483
30.009497869018190385759 405.00152066979040910 30.009497869018190385759 85.31304422970316637
31.009497869018190385759 407.11827141296924992 31.009497869018190385759 83.53373553931393758
32.009497869018190385759 409.10860998318872817 32.009497869018190385759 81.74718069037238877
33.009497869018190385759 410.98732295797390179 33.009497869018190385759 79.99056492276315566
34.009497869018190385759 412.76180859469002371 34.009497869018190385759 78.21934610100753105
35.009497869018190385759 414.43676807816422070 35.009497869018190385759 76.37706929144734147
36.009497869018190385759 416.01855147417001035 36.009497869018190385759 74.66287756428384625
37.009497869018190385759 417.51083565717368629 37.009497869018190385759 72.96049308637229558
38.009497869018190385759 418.91702782448635389 38.009497869018190385759 71.24324573268700078
39.009497869018190385759 420.24025675129178126 39.009497869018190385759 69.49116942234971361
40.009497869018190385759 421.48814687974197568 40.009497869018190385759 67.66988826760484699
41.009497869018190385759 422.66553105043897176 41.009497869018190385759 65.98663776488754706
42.009497869018190385759 423.77682973057272875 42.009497869018190385759 64.26012984302556674
43.009497869018190385759 424.82635973839217058 43.009497869018190385759 62.59069826331840147
44.009497869018190385759 425.81794152842871881 44.009497869018190385759 60.90833319233917820
46.009497869018190385759 427.64084012495123943 46.009497869018190385759 57.66308841554084808
48.009497869018190385759 429.27014321950002795 48.009497869018190385759 54.56101713071525694
50.009497869018218807469 430.72678785196211493 50.009497869018218807469 51.55787735094447299
52.009497869018190385759 432.03082280551893746 52.009497869018190385759 48.66907222147038681
54.009497869018190385759 433.19869302503099107 54.009497869018190385759 45.91795124227748204
56.009497869018190385759 434.24561619580384786 56.009497869018190385759 43.28084437835892828
58.009497869018190385759 435.18442592441175520 58.009497869018190385759 40.76904638189526509
60.009497869018190385759 436.02725982822482820 60.009497869018190385759 38.37939580400131234
62.009497869018190385759 436.78385654315678721 62.009497869018190385759 36.10274274661236404
64.009497869018190385759 437.46420777386805412 64.009497869018190385759 33.93859959493693168
66.009497869018218807469 438.07577910560604550 66.009497869018218807469 31.90680421833276270
68.009497869018190385759 438.62594454534951183 68.009497869018190385759 29.98610230257195397
70.009497869018190385759 439.12119375056664694 70.009497869018190385759 28.14387387314119593
72.009497869018190385759 439.56684272648004708 72.009497869018190385759 26.42948344687739137
74.009497869018218807469 439.96838678921290011 74.009497869018218807469 24.79586425293723195
76.009497869018190385759 440.33030974666877455 76.009497869018190385759 23.25103090361512059
78.009497869018190385759 440.65657065856339614 78.009497869018190385759 21.78748252096201199
80.009497869018218807469 440.95085094756529998 80.009497869018218807469 20.41381630427181193
82.009497869018190385759 441.21622794438661685 82.009497869018190385759 19.10885730319122544
84.009497869018190385759 441.45546245687609144 84.009497869018190385759 17.83625657798493336
86.009497869018218807469 441.67136243827326325 86.009497869018218807469 16.67095638871101215
88.009497869018190385759 441.86620315120751457 88.009497869018190385759 15.53516594378733906
91.009497869018190385759 442.12338444342452703 91.009497869018190385759 13.96376500945362764
94.009497869018190385759 442.34414802283026802 94.009497869018190385759 12.50215826957204612
97.009497869018190385759 442.53318594086834992 97.009497869018190385759 11.18155326155367568
99.504748934509137825444 442.66958785662990294 99.504748934509137825444 9.50308647263041806
nan nan nan nan

