Time Pressure difference Time.1 Pressure.1 difference.1
(hr) (psi) (hr) (psi)
0.000200000000006639311 0.67883207639581888 0.000200000000006639311 0.54411980453801156
0.000399999999999067768 1.26938770144421809 0.000399999999999067768 1.15986845545821549
0.000600000000019917934 1.81269327320426665 0.000600000000019917934 1.59225200640820486
0.000799999999998135536 2.32224761640635657 0.000799999999998135536 1.99353118283955300
0.001007140329448930061 2.82223568772077371 0.001007140329448930061 2.38222437777680396
0.001267914553963578328 3.41929111171693023 0.001267914553963578328 2.83822007703031742
0.001596209851982166583 4.12926728570688439 0.001596209851982166583 3.36714364934493071
0.002009509145210586212 4.96989261385645342 0.002009509145210586212 3.97735868091756162
0.002529822128153114136 5.96087081623804149 0.002529822128153114136 4.67767345759171427
0.003184857364431081805 7.12398486382743545 0.003184857364431081805 5.47737805822582136
0.004009497869020606231 8.48321413995522633 0.004009497869020606231 6.38632855447959802
0.005047658755856332391 10.06487682714002929 0.005047658755856332391 7.41508435383037945
0.006354625877790454069 11.89780986157651910 0.006354625877790454069 8.57509297517859359
0.007999999999995566213 14.01359577156178915 0.007999999999995566213 9.87890818120680692
0.010071403294347192059 16.44684218330073122 0.010071403294347192059 11.34044916645806644
0.012679145539706837553 19.23552675027950087 0.012679145539706837553 12.97537156258078817
0.015962098519764822413 22.42144572083421750 0.015962098519764822413 14.80164089565429109
0.020095091452077440408 26.05082041112650160 0.020095091452077440408 16.84019368462875832
0.025298221281346400247 30.17504661010398337 0.025298221281346400247 19.11508270614283589
0.031848573644282396344 34.85136289568812629 0.031848573644282396344 21.65209999609476554
0.040094978690177640601 40.14295905217280591 0.040094978690177640601 24.47515880568500890
0.050476587558421215363 46.11796930250804394 0.050476587558421215363 27.60083709751617320
0.063546258777947173257 52.84705679293558234 0.063546258777947173257 31.03322676410648029
0.079999999999998294697 60.40002111553598496 0.079999999999998294697 34.76170733585880868
0.100714032943528764008 68.84234037644462489 0.100714032943528764008 38.76211041347448827
0.126791455396883634421 78.23229302760717019 0.126791455396883634421 43.00307987840067625
0.159620985197506115583 88.62039846949132027 0.159620985197506115583 47.45673052832265881
0.200950914520774404082 100.05140314235808319 0.200950914520774404082 52.10008972985157527
0.252982212813464002465 112.56433093708541548 0.252982212813464002465 56.92595040805149864
0.318485736442795541734 126.19937829571772170 0.318485736442795541734 61.95814356735861139
0.400949786901833249431 141.00486428162440689 0.400949786901833249431 67.21627506697643639
0.504765875584169521062 157.02778207788139753 0.504765875584169521062 72.75747601822666866
0.635462587779429100010 174.33965464746984253 0.635462587779429100010 78.64721891739196735
0.800000000000011368684 193.01344913426814287 0.800000000000011368684 84.97694280184285276
1.007140329435344483500 213.15695242870000925 1.007140329435344483500 91.84123154417682144
1.267914553968893187630 234.87880743592464228 1.267914553968893187630 99.30618579877086916
1.596209851975103788391 258.30654583549505787 1.596209851975103788391 107.42176480249135295
2.009509145207672986544 283.55762008959442255 2.009509145207672986544 116.13186155866577565
2.529822128134725289783 310.71570239301075844 2.529822128134725289783 125.27265741368869101
3.184857364427998049905 339.80077102045146376 3.184857364427998049905 134.56334381243996745
4.009497869018190385759 370.74155134674748524 4.009497869018190385759 143.63303780105150054
5.009497869018204596614 402.25840932356391022 5.009497869018204596614 151.80466287092048105
6.009497869018190385759 428.99482650123457006 6.009497869018190385759 157.80650436767419365
7.009497869018190385759 452.14713504337299810 7.009497869018190385759 162.21293627365761836
8.009497869018204596614 472.48742473496884031 8.009497869018204596614 165.39298230433635695
9.009497869018190385759 490.55820124908029811 9.009497869018190385759 167.59317930390750462
10.009497869018190385759 506.76313835507562544 10.009497869018190385759 169.02036222900406415
11.009497869018204596614 521.39916647310474218 11.009497869018204596614 170.03089491374973363
12.009497869018190385759 534.69968798803324717 12.009497869018190385759 170.55977321454028584
13.009497869018190385759 546.84874988174067312 13.009497869018190385759 170.69968051732755043
14.009497869018204596614 557.99529117542795120 14.009497869018204596614 170.51919286964172784
15.009497869018190385759 568.26187230648031345 15.009497869018190385759 170.02678772074568769
16.009497869018190385759 577.75100748968122844 16.009497869018190385759 169.24064036071084161
17.009497869018190385759 586.53878415465260332 17.009497869018190385759 168.04280815957736195
18.009497869018204596614 594.69479039550105881 18.009497869018204596614 166.65675600427942982
19.009497869018190385759 602.27679351888775727 19.009497869018190385759 164.83565633781302040
20.009497869018190385759 609.33212743409330869 20.009497869018190385759 163.04348058424139367
21.009497869018204596614 615.90273379886457406 21.009497869018204596614 161.13013249739549337
22.009497869018190385759 622.03489774634442711 22.009497869018190385759 159.12460283984086118
23.009497869018190385759 627.77627444008965085 23.009497869018190385759 156.97751701122274426
24.009497869018204596614 633.15887700326049981 24.009497869018204596614 154.82399099118737240
25.009497869018190385759 638.21166950468762025 25.009497869018190385759 152.55396617560563755
26.009497869018190385759 642.96089553273691308 26.009497869018190385759 149.94357908170047722
27.009497869018204596614 647.42800371096166145 27.009497869018204596614 147.27513663834122326
28.009497869018190385759 651.61917799195748557 28.009497869018190385759 144.49850949686324952
29.009497869018190385759 655.54495630607891599 29.009497869018190385759 141.68480254174826882
30.009497869018190385759 659.22618139072733356 30.009497869018190385759 138.86513877121967653
31.009497869018190385759 662.67164378571783345 31.009497869018190385759 135.96893514329062214
32.009497869018190385759 665.91134346178478154 32.009497869018190385759 133.06093684993834358
33.009497869018190385759 668.96934872124302274 33.009497869018190385759 130.20167078413032868
34.009497869018190385759 671.85770180270912988 34.009497869018190385759 127.31863513936951904
35.009497869018190385759 674.58405488515870729 35.009497869018190385759 124.31993749442597164
36.009497869018190385759 677.15874405228009891 36.009497869018190385759 121.52972558460226082
37.009497869018190385759 679.58775419990706723 37.009497869018190385759 118.75873248616525757
38.009497869018190385759 681.87663126690188165 38.009497869018190385759 115.96354689377265856
39.009497869018190385759 684.03046800085053292 39.009497869018190385759 113.11166976091980985
40.009497869018190385759 686.06167480425449412 40.009497869018190385759 110.14714701321322821
41.009497869018190385759 687.97811815388649848 41.009497869018190385759 107.40729853216254241
42.009497869018190385759 689.78699330101562737 42.009497869018190385759 104.59703939390639960
43.009497869018190385759 691.49532678619755188 43.009497869018190385759 101.87968415147818746
44.009497869018190385759 693.10933721238393446 44.009497869018190385759 99.14127689904957208
46.009497869018190385759 696.07649269086391541 46.009497869018190385759 93.85895025901889710
48.009497869018190385759 698.72853028215774884 48.009497869018190385759 88.80966895233285641
50.009497869018218807469 701.09952947523038347 50.009497869018218807469 83.92141972816503426
52.009497869018190385759 703.22212393218853776 52.009497869018190385759 79.21927448402942673
54.009497869018190385759 705.12308130117730798 54.009497869018190385759 74.74123950120291227
56.009497869018190385759 706.82717160418815183 56.009497869018190385759 70.44878675943230917
58.009497869018190385759 708.35528426761516130 58.009497869018190385759 66.36030087203319283
60.009497869018190385759 709.72717584727740814 60.009497869018190385759 62.47063590801549537
62.009497869018190385759 710.95869804603978537 62.009497869018190385759 58.76489846067956790
64.009497869018190385759 712.06611449001900382 64.009497869018190385759 55.24229483316111100
66.009497869018218807469 713.06157700829032819 66.009497869018218807469 51.93511538042477582
68.009497869018190385759 713.95708836680432796 68.009497869018190385759 48.80876418198273115
70.009497869018190385759 714.76321186444488376 70.009497869018190385759 45.81014528599777691
72.009497869018190385759 715.48860043124875574 72.009497869018190385759 43.01960995109424601
74.009497869018218807469 716.14219886391083492 74.009497869018218807469 40.36054698933855889
76.009497869018190385759 716.73130551419365020 76.009497869018190385759 37.84600188818821920
78.009497869018190385759 717.26236459448966798 78.009497869018190385759 35.46376537218357328
80.009497869018218807469 717.74136840379992464 80.009497869018218807469 33.22783121313024424
82.009497869018190385759 718.17332595288303310 82.009497869018190385759 31.10373267213930149
84.009497869018190385759 718.56273104416402475 84.009497869018190385759 29.03230411274675404
86.009497869018218807469 718.91415421922613405 86.009497869018218807469 27.13553001501375306
88.009497869018190385759 719.23129895229942576 88.009497869018190385759 25.28678930750025700
91.009497869018190385759 719.64991624764434164 91.009497869018190385759 22.72899980670665698
94.009497869018190385759 720.00925596370530002 94.009497869018190385759 20.34992372760057222
97.009497869018190385759 720.31695541293265705 97.009497869018190385759 18.20035797999137372
99.504748934509137825444 720.53897856463129301 99.504748934509137825444 15.46829601137672405
nan nan nan nan

