Time Pressure difference Time.1 Pressure.1 difference.1
(hr) (psi) (hr) (psi)
0.000200000000006639311 0.41635034018943556 0.000200000000006639311 0.33372681344998045
0.000399999999999067768 0.77855779021912053 0.000399999999999067768 0.71138598601437220
0.000600000000019917934 1.11178520756528343 0.000600000000019917934 0.97658123059703228
0.000799999999998135536 1.42431187139589888 0.000799999999998135536 1.22269912547492576
0.001007140329448930061 1.73097122180207452 0.001007140329448930061 1.46109761836977325
0.001267914553963578328 2.09716521518638377 0.001267914553963578328 1.74077498057859459
0.001596209851982166583 2.53261726856688929 0.001596209851982166583 2.06518143826489098
0.002009509145210586212 3.04820080316529163 0.002009509145210586212 2.43944665762943735
0.002529822128153114136 3.65600076729266510 0.002529822128153114136 2.86897305398958435
0.003184857364431081805 4.36937738314749335 0.003184857364431081805 3.35945854237850350
0.004009497869020606231 5.20303800583920495 0.004009497869020606231 3.91694818008082057
0.005047658755856332391 6.17312445397921739 0.005047658755856332391 4.54791840368263323
0.006354625877790454069 7.29732338176693229 0.006354625877790454069 5.25939035810953737
0.007999999999995566213 8.59500540655789713 0.007999999999995566213 6.05906368447350907
0.010071403294347192059 10.08739653909111489 0.010071403294347192059 6.95547548876094712
0.012679145539706837553 11.79778974017142801 0.012679145539706837553 7.95822789171621547
0.015962098519764822413 13.75182004211165143 0.015962098519764822413 9.07833974933463139
0.020095091452077440408 15.97783651882425460 0.020095091452077440408 10.32865212657230458
0.025298221281346400247 18.50736192086377585 0.025298221281346400247 11.72391739310094039
0.031848573644282396344 21.37550257602205050 0.031848573644282396344 13.27995466427145566
0.040094978690177640601 24.62101488533265226 0.040094978690177640601 15.01143073415347295
0.050476587558421215363 28.28568783887160265 0.050476587558421215363 16.92851341980991720
0.063546258777947173257 32.41286149966715158 0.063546258777947173257 19.03371241531863944
0.079999999999998294697 37.04534628419540354 0.079999999999998294697 21.32051383266006894
0.100714032943528764008 42.22330209755269692 0.100714032943528764008 23.77409438693101862
0.126791455396883634421 47.98247305693239895 0.126791455396883634421 26.37522232541908096
0.159620985197506115583 54.35384439462133344 0.159620985197506115583 29.10679472403789703
0.200950914520774404082 61.36486059397962123 0.200950914520774404082 31.95472170097562881
0.252982212813464002465 69.03945630807905331 0.252982212813464002465 34.91458291693825089
0.318485736442795541734 77.40228535470686211 0.318485736442795541734 38.00099472131328326
0.400949786901833249431 86.48298342606297240 0.400949786901833249431 41.22598204107888620
0.504765875584169521062 96.31037300776723953 0.504765875584169521062 44.62458529117902373
0.635462587779429100010 106.92832151711483846 0.635462587779429100010 48.23696093600040768
0.800000000000011368684 118.38158213568446797 0.800000000000011368684 52.11919158513028094
1.007140329435344483500 130.73626415626935682 1.007140329435344483500 56.32928868042844073
1.267914553968893187630 144.05900189403376999 1.267914553968893187630 60.90779395657947504
1.596209851975103788391 158.42801477910361996 1.596209851975103788391 65.88534907886136693
2.009509145207672986544 173.91534032161794698 2.009509145207672986544 71.22754175598167592
2.529822128134725289783 190.57229746771326973 2.529822128134725289783 76.83389654706238048
3.184857364427998049905 208.41113955921022693 3.184857364427998049905 82.53218420496317265
4.009497869018190385759 227.38815149267176707 4.009497869018190385759 88.09492985131159060
5.009497869018204596614 246.71849105178586115 5.009497869018204596614 93.10685989416455755
6.009497869018190385759 263.11682692075714840 6.009497869018190385759 96.78798934550684407
7.009497869018190385759 277.31690949326883810 7.009497869018190385759 99.49060091450999721
8.009497869018204596614 289.79228717078086675 8.009497869018204596614 101.44102914665963056
9.009497869018190385759 300.87569676610252145 9.009497869018190385759 102.79048330639659525
10.009497869018190385759 310.81472485777970860 10.009497869018190385759 103.66582216712248510
11.009497869018204596614 319.79148877017087216 11.009497869018204596614 104.28561554709982317
12.009497869018190385759 327.94914196599370371 12.009497869018190385759 104.60999423825137455
13.009497869018190385759 335.40056659413426132 13.009497869018190385759 104.69580405062757222
14.009497869018204596614 342.23711192092918054 14.009497869018204596614 104.58510496004691959
15.009497869018190385759 348.53394834797461499 15.009497869018190385759 104.28309646872402539
16.009497869018190385759 354.35395126033785118 16.009497869018190385759 103.80092608790265274
17.009497869018190385759 359.74378761485365885 17.009497869018190385759 103.06625567120744336
18.009497869018204596614 364.74613810924063273 18.009497869018204596614 102.21614368262473249
19.009497869018190385759 369.39643335825110171 19.009497869018190385759 101.09920255385866028
20.009497869018190385759 373.72370482624393162 20.009497869018190385759 100.00000142500138622
21.009497869018204596614 377.75367672997026602 21.009497869018204596614 98.82648126506923347
22.009497869018190385759 381.51473728442454103 22.009497869018190385759 97.59642307510239334
23.009497869018190385759 385.03611498992165707 23.009497869018190385759 96.27954376688327898
24.009497869018204596614 388.33744456199974593 24.009497869018204596614 94.95871447459491321
25.009497869018190385759 391.43649062954170859 25.009497869018190385759 93.56643258770480998
26.009497869018190385759 394.34934926007866807 26.009497869018190385759 91.96539517010963039
27.009497869018204596614 397.08917560938976976 27.009497869018204596614 90.32875047151595993
28.009497869018190385759 399.65976250173389417 28.009497869018190385759 88.62575249140944322
29.009497869018190385759 402.06757320106174802 29.009497869018190385759 86.90001222560560734
30.009497869018190385759 404.32539125297938654 30.009497869018190385759 85.17061844634807244
31.009497869018190385759 406.43860818857359618 31.009497869018190385759 83.39428022121825279
32.009497869018190385759 408.42562398989463190 32.009497869018190385759 81.61070793462886286
33.009497869018190385759 410.30120054902903348 33.009497869018190385759 79.85702474759993663
34.009497869018190385759 412.07272377232828831 34.009497869018190385759 78.08876288547996580
35.009497869018190385759 413.74488699623071852 35.009497869018190385759 76.24956166324793116
36.009497869018190385759 415.32402968539844323 36.009497869018190385759 74.53823169188937925
37.009497869018190385759 416.81382257594304974 37.009497869018190385759 72.83868925818136120
38.009497869018190385759 418.21766717703314953 38.009497869018190385759 71.12430876151390180
39.009497869018190385759 419.53868704052166549 39.009497869018190385759 69.37515745336415307
40.009497869018190385759 420.78449387994271547 40.009497869018190385759 67.55691683477078868
41.009497869018190385759 421.95991246771706074 41.009497869018190385759 65.87647643305969325
42.009497869018190385759 423.06935589128960373 42.009497869018190385759 64.15285082826258645
43.009497869018190385759 424.11713376220120608 43.009497869018190385759 62.48620627957329532
44.009497869018190385759 425.10706015692886695 44.009497869018190385759 60.80664983141707580
46.009497869018190385759 426.92691551706315067 46.009497869018190385759 57.56682282553159524
48.009497869018190385759 428.55349857305679961 48.009497869018190385759 54.46993029076415382
50.009497869018218807469 430.00771141147470189 50.009497869018218807469 51.47180409994122385
52.009497869018190385759 431.30956934507565848 52.009497869018190385759 48.58782168353804565
54.009497869018190385759 432.47548986472207844 54.009497869018190385759 45.84129356073778894
56.009497869018190385759 433.52066525056875435 56.009497869018190385759 43.20858921245181250
58.009497869018190385759 434.45790768413729666 58.009497869018190385759 40.70098453484702361
60.009497869018190385759 435.29933451966354596 60.009497869018190385759 38.31532335691616709
62.009497869018190385759 436.05466813490443201 62.009497869018190385759 36.04247105588346756
64.009497869018190385759 436.73388355387828597 64.009497869018190385759 33.88194083100547971
66.009497869018218807469 437.34443389841806038 66.009497869018218807469 31.85353743332720100
68.009497869018190385759 437.89368086497330523 68.009497869018190385759 29.93604203161607558
70.009497869018190385759 438.38810327685956736 70.009497869018190385759 28.09688910874530521
72.009497869018190385759 438.83300826449925580 72.009497869018190385759 26.38536077000447122
74.009497869018218807469 439.23388196986530829 74.009497869018218807469 24.75446882012765215
76.009497869018190385759 439.59520071537212971 76.009497869018190385759 23.21221449142210957
78.009497869018190385759 439.92091695128698348 78.009497869018190385759 21.75110942827259208
80.009497869018218807469 440.21470595433061135 80.009497869018218807469 20.37973647738654748
82.009497869018190385759 440.47963991776828152 82.009497869018190385759 19.07695603891210823
84.009497869018190385759 440.71847504042057153 84.009497869018190385759 17.80647985581801152
86.009497869018218807469 440.93401458779203494 86.009497869018218807469 16.64312507587510126
88.009497869018190385759 441.12853002407700842 88.009497869018190385759 15.50923077526682370
91.009497869018190385759 441.38528196522184999 91.009497869018190385759 13.94045321478008148
94.009497869018190385759 441.60567699107258477 94.009497869018190385759 12.48128655292835276
97.009497869018190385759 441.79439931993209711 97.009497869018190385759 11.16288622772804295
99.504748934509137825444 441.93057351964051804 99.504748934509137825444 9.48722155364439068
nan nan nan nan

