Time Pressure difference Time.1 Pressure.1 difference.1
(hr) (psi) (hr) (psi)
0.000200000000006639311 0.33558672904900994 0.000200000000006639311 0.26899050849981704
0.000399999999999067768 0.62753320214985975 0.000399999999999067768 0.57339138003165113
0.000600000000019917934 0.89612118736867330 0.000600000000019917934 0.78714406880897925
0.000799999999998135536 1.14802394985421952 0.000799999999998135536 0.98552003090119444
0.001007140329448930061 1.39519753998093643 0.001007140329448930061 1.17767400009068690
0.001267914553963578328 1.69035724702313872 0.001267914553963578328 1.40309956628575683
0.001596209851982166583 2.04134034021612143 0.001596209851982166583 1.66457768100949388
0.002009509145210586212 2.45691101526031863 0.002009509145210586212 1.96624295815616867
0.002529822128153114136 2.94680998300178043 0.002529822128153114136 2.31244985288123717
0.003184857364431081805 3.52180585063058871 0.003184857364431081805 2.70779099904086751
0.004009497869020606231 4.19375304149581485 0.004009497869020606231 3.15713883411196594
0.005047658755856332391 4.97566218531435300 0.005047658755856332391 3.66571349594486451
0.006354625877790454069 5.88178908028705916 0.006354625877790454069 4.23917416824213511
0.007999999999995566213 6.92774683271054581 0.007999999999995566213 4.88372691624787869
0.010071403294347192059 8.13064403318046480 0.010071403294347192059 5.60625281870029557
0.012679145539706837553 9.50925527552278993 0.012679145539706837553 6.41449137760404042
0.015962098519764822413 11.08424291019701613 0.015962098519764822413 7.31732401200550608
0.020095091452077440408 12.87845685965433162 0.020095091452077440408 8.32510087793955122
0.025298221281346400247 14.91730509340525046 0.025298221281346400247 9.44971268139574150
0.031848573644282396344 17.22908401612479423 0.031848573644282396344 10.70390994678736085
0.040094978690177640601 19.84503206476645332 0.040094978690177640601 12.09951440445146176
0.050476587558421215363 22.79883200390653997 0.050476587558421215363 13.64472151897722618
0.063546258777947173257 26.12541679404610306 0.063546258777947173257 15.34155415415315105
0.079999999999998294697 29.85929248993676310 0.079999999999998294697 17.18476198552199463
0.100714032943528764008 34.03282878097056852 0.100714032943528764008 19.16239714799456451
0.126791455396883634421 38.67483614287862537 0.126791455396883634421 21.25895846296320357
0.159620985197506115583 43.81028929466134514 0.159620985197506115583 23.46066063041181593
0.200950914520774404082 49.46130904063240052 0.200950914520774404082 25.75614692285995488
0.252982212813464002465 55.64718719146171111 0.252982212813464002465 28.14185445813417630
0.318485736442795541734 62.38779521901121683 0.318485736442795541734 30.62956430714548262
0.400949786901833249431 69.70702008589022114 0.400949786901833249431 33.22896880234117134
0.504765875584169521062 77.62809329388598201 0.504765875584169521062 35.96831122131820990
0.635462587779429100010 86.18637286162096700 0.635462587779429100010 38.87995848018761791
0.800000000000011368684 95.41793075150486914 0.800000000000011368684 42.00911428768026212
1.007140329435344483500 105.37605238013682651 1.007140329435344483500 45.40253703004433561
1.267914553968893187630 116.11444634268275422 1.267914553968893187630 49.09290415898211535
1.596209851975103788391 127.69615906944473238 1.596209851975103788391 53.10491347159059927
2.009509145207672986544 140.17925423916361183 2.009509145207672986544 57.41082797054041009
2.529822128134725289783 153.60509595223712154 2.529822128134725289783 61.92966243425429695
3.184857364427998049905 167.98356064805906840 3.184857364427998049905 66.52259663343185991
4.009497869018190385759 183.27941307603313703 4.009497869018190385759 71.00628125139161284
5.009497869018204596614 198.86005466046952961 5.009497869018204596614 75.04599743977811954
6.009497869018190385759 212.07744243445645793 6.009497869018190385759 78.01306164637843210
7.009497869018190385759 223.52299393939054539 7.009497869018190385759 80.19142080400304451
8.009497869018204596614 233.57839868949227480 8.009497869018204596614 81.76350509814372458
9.009497869018190385759 242.51184923287863171 9.009497869018190385759 82.85119223023939128
10.009497869018190385759 250.52290532015021540 10.009497869018190385759 83.55673291731277175
11.009497869018204596614 257.75835716926820851 11.009497869018204596614 84.05629881889984745
12.009497869018190385759 264.33358934382766847 12.009497869018190385759 84.31775455323941060
13.009497869018190385759 270.33958712102469235 13.009497869018190385759 84.38691898395063617
14.009497869018204596614 275.84997984262184900 14.009497869018204596614 84.29769329555621482
15.009497869018190385759 280.92535636074211425 15.009497869018190385759 84.05426839117889415
16.009497869018190385759 285.61639549746291777 16.009497869018190385759 83.66562938857704523
17.009497869018190385759 289.96071175645391804 17.009497869018190385759 83.07347029017054751
18.009497869018204596614 293.99270663654510827 18.009497869018204596614 82.38826296826943008
19.009497869018190385759 297.74093792420910631 19.009497869018190385759 81.48798600494961875
20.009497869018190385759 301.22880556229023341 20.009497869018190385759 80.60200783754292786
21.009497869018204596614 304.47704378569505934 21.009497869018204596614 79.65612703973808095
22.009497869018190385759 307.50853406537231649 22.009497869018190385759 78.66467545518287352
23.009497869018190385759 310.34683515910069218 23.009497869018190385759 77.60324430708651278
24.009497869018204596614 313.00777304161181291 24.009497869018204596614 76.53862939256646314
25.009497869018190385759 315.50566636026604783 25.009497869018190385759 75.41642225296608615
26.009497869018190385759 317.85348886849152450 26.009497869018190385759 74.12595396654320723
27.009497869018204596614 320.06184388582920519 27.009497869018204596614 72.80678549710818004
28.009497869018190385759 322.13378850474202864 28.009497869018190385759 71.43413495126982582
29.009497869018190385759 324.07453224567183270 29.009497869018190385759 70.04315366679249166
30.009497869018190385759 325.89437890290315636 30.009497869018190385759 68.64922757715680746
31.009497869018190385759 327.59767415868304852 31.009497869018190385759 67.21746332211905894
32.009497869018190385759 329.19924876777457712 32.009497869018190385759 65.77986826837977219
33.009497869018190385759 330.71100111142470723 33.009497869018190385759 64.36636442866750940
34.009497869018190385759 332.13888437836493495 34.009497869018190385759 62.94110988428319331
35.009497869018190385759 333.48668149194514854 35.009497869018190385759 61.45867679211622914
36.009497869018190385759 334.75950218789643031 36.009497869018190385759 60.07931049413157609
37.009497869018190385759 335.96030515318483367 37.009497869018190385759 58.70944518803246837
38.009497869018190385759 337.09183207245814629 38.009497869018190385759 57.32762010543428488
39.009497869018190385759 338.15660059118971503 39.009497869018190385759 55.91776905103932904
40.009497869018190385759 339.16074590323148641 40.009497869018190385759 54.45223062601926500
41.009497869018190385759 340.10815687197259649 41.009497869018190385759 53.09776194102805391
42.009497869018190385759 341.00239053445085347 42.009497869018190385759 51.70848511575680106
43.009497869018190385759 341.84692052404847118 43.009497869018190385759 50.36513616514100988
44.009497869018190385759 342.64482106294263986 44.009497869018190385759 49.01137996445322642
46.009497869018190385759 344.11166100204758322 46.009497869018190385759 46.40001438445857929
48.009497869018190385759 345.42271958564111856 48.009497869018190385759 43.90385685643531843
50.009497869018218807469 346.59484431493444845 50.009497869018218807469 41.48730698356466462
52.009497869018190385759 347.64416793365626290 52.009497869018190385759 39.16275928338685475
54.009497869018190385759 348.58392326888969137 54.009497869018190385759 36.94900250213313342
56.009497869018190385759 349.42635560330120370 56.009497869018190385759 34.82698996722704265
58.009497869018190385759 350.18179181229794494 58.009497869018190385759 32.80581027725128251
60.009497869018190385759 350.85999872655156651 60.009497869018190385759 30.88291949503945233
62.009497869018190385759 351.46881277763202434 62.009497869018190385759 29.05095493133082130
64.009497869018190385759 352.01627403506580549 64.009497869018190385759 27.30952421495759452
66.009497869018218807469 352.50838986461121749 66.009497869018218807469 25.67459037268179145
68.009497869018190385759 352.95109394133299929 68.009497869018190385759 24.12905060073402552
70.009497869018190385759 353.34960832683327681 70.009497869018190385759 22.64665643882146284
72.009497869018190385759 353.70821067473019639 72.009497869018190385759 21.26713025274607816
74.009497869018218807469 354.03132292554363403 74.009497869018218807469 19.95259861421660474
76.009497869018190385759 354.32255308496547741 76.009497869018190385759 18.70951067703253301
78.009497869018190385759 354.58508690722464962 78.009497869018190385759 17.53183067629998249
80.009497869018218807469 354.82188673910928856 80.009497869018218807469 16.42647655869618006
82.009497869018190385759 355.03542883004058694 82.009497869018190385759 15.37640938253450607
84.009497869018190385759 355.22793473157645394 84.009497869018190385759 14.35238008445531932
86.009497869018218807469 355.40166393196614081 86.009497869018218807469 13.41469278690936306
88.009497869018190385759 355.55844727693164486 88.009497869018190385759 12.50075122688730822
91.009497869018190385759 355.76539449370727652 91.009497869018190385759 11.23628503264882816
94.009497869018190385759 355.94303730718559109 94.009497869018190385759 10.06016742225997618
97.009497869018190385759 356.09515129131648337 97.009497869018190385759 8.99751030395471041
99.504748934509137825444 356.20491042887414324 99.504748934509137825444 7.64689095126521146
nan nan nan nan

