Time Pressure difference Time.1 Pressure.1 difference.1
(hr) (psi) (hr) (psi)
0.000200000000006639311 0.20469397995935459 0.000200000000006639311 0.16407304875300041
0.000399999999999067768 0.38276921458933344 0.000399999999999067768 0.34974494964586189
0.000600000000019917934 0.54659674084313270 0.000600000000019917934 0.48012522039385863
0.000799999999998135536 0.70024697356253218 0.000799999999998135536 0.60112632590238824
0.001007140329448930061 0.85101260737426399 0.001007140329448930061 0.71833227391423626
0.001267914553963578328 1.03104778137925890 0.001267914553963578328 0.85583251553529571
0.001596209851982166583 1.24513290461315296 0.001596209851982166583 1.01532331580247126
0.002009509145210586212 1.49861377279363839 0.002009509145210586212 1.19932661763052617
0.002529822128153114136 1.79743181535793251 0.002529822128153114136 1.41049845798150142
0.003184857364431081805 2.14815543586181112 0.003184857364431081805 1.65164015294194000
0.004009497869020606231 2.55801534066342207 0.004009497869020606231 1.92572368719692499
0.005047658755856332391 3.03494747402991649 0.005047658755856332391 2.23593312823192969
0.006354625877790454069 3.58764728133691957 0.006354625877790454069 2.58572034328462186
0.007999999999995566213 4.22563810957863151 0.007999999999995566213 2.97887077464082228
0.010071403294347192059 4.95935548911837376 0.010071403294347192059 3.41958159480889368
0.012679145539706837553 5.80025114316120316 0.012679145539706837553 3.91257357887051427
0.015962098519764822413 6.76092824812847049 0.015962098519764822413 4.46326402392037114
0.020095091452077440408 7.85532430858583819 0.020095091452077440408 5.07796609567267243
0.025298221281346400247 9.09893713166212414 0.025298221281346400247 5.76393263139076328
0.031848573644282396344 10.50902635008442054 0.031848573644282396344 6.52894092189934394
0.040094978690177640601 12.10464611419364545 0.040094978690177640601 7.38020173217578712
0.050476587558421215363 13.90634151275627239 0.050476587558421215363 8.32271395555872395
0.063546258777947173257 15.93542020217749844 0.063546258777947173257 9.35771145502287638
0.079999999999998294697 18.21292944406931369 0.079999999999998294697 10.48199175050511656
0.100714032943528764008 20.75861340582022407 0.100714032943528764008 11.68826714006307554
0.126791455396883634421 23.59004528217077734 0.126791455396883634421 12.96708254794851101
0.159620985197506115583 26.72245861541584233 0.159620985197506115583 14.31002951315575444
0.200950914520774404082 30.16934617831105214 0.200950914520774404082 15.71018090315524418
0.252982212813464002465 33.94247517487498556 0.252982212813464002465 17.16536350765860774
0.318485736442795541734 38.05396637840103580 0.318485736442795541734 18.68276329108044109
0.400949786901833249431 42.51838984492059126 0.400949786901833249431 20.26829217404212358
0.504765875584169521062 47.34991582656115128 0.504765875584169521062 21.93917738395758121
0.635462587779429100010 52.57011124754475162 0.635462587779429100010 23.71516139662896094
0.800000000000011368684 58.20097850817931828 0.800000000000011368684 25.62381659870953854
1.007140329435344483500 64.27501950157721922 1.007140329435344483500 27.69366366562869786
1.267914553968893187630 70.82499424221727224 1.267914553968893187630 29.94463448701398889
1.596209851975103788391 77.88935843654927282 1.596209851975103788391 32.39179369428969579
2.009509145207672986544 85.50352851932386500 2.009509145207672986544 35.01822286999767897
2.529822128134725289783 93.69273487543094348 2.529822128134725289783 37.77452438935843304
3.184857364427998049905 102.46300172308997389 3.184857364427998049905 40.57602367267420362
4.009497869018190385759 111.79283702148077850 4.009497869018190385759 43.31088524462475675
5.009497869018204596614 121.29638188833619949 5.009497869018204596614 45.77494449646217589
6.009497869018190385759 129.35843999114149483 6.009497869018190385759 47.58473054779098987
7.009497869018190385759 136.33975149000173133 7.009497869018190385759 48.91343924559522094
8.009497869018204596614 142.47313115085214008 8.009497869018204596614 49.87234543330757219
9.009497869018190385759 147.92216529972264993 9.009497869018190385759 50.53578945163980052
10.009497869018190385759 152.80857710399203597 10.009497869018190385759 50.96613999520737792
11.009497869018204596614 157.22190250573618187 11.009497869018204596614 51.27085446629990884
12.009497869018190385759 161.23252130100692625 12.009497869018190385759 51.43033161546137677
13.009497869018190385759 164.89593073357104913 13.009497869018190385759 51.47251904830184088
14.009497869018204596614 168.25704164674445451 14.009497869018204596614 51.41809508069196966
15.009497869018190385759 171.35281072626173682 15.009497869018190385759 51.26961598964024347
16.009497869018190385759 174.21414995073462251 16.009497869018190385759 51.03256232415280635
17.009497869018190385759 176.86400260663373274 17.009497869018190385759 50.67136984504178798
18.009497869018204596614 179.32335218079722949 18.009497869018204596614 50.25342181052118917
19.009497869018190385759 181.60961773800303831 19.009497869018190385759 49.70429021878669573
20.009497869018190385759 183.73707227243431817 20.009497869018190385759 49.16388029924818426
21.009497869018204596614 185.71836280704224009 21.009497869018204596614 48.58693226075310179
22.009497869018190385759 187.56744608966693022 22.009497869018190385759 47.98218793324431886
23.009497869018190385759 189.29869198501162941 23.009497869018190385759 47.33475897569178414
24.009497869018204596614 190.92175368098315857 24.009497869018204596614 46.68538805272726222
25.009497869018190385759 192.44536495833656886 25.009497869018190385759 46.00088826218262739
26.009497869018190385759 193.87743926833300634 26.009497869018190385759 45.21375615386660485
27.009497869018204596614 195.22444419592071085 27.009497869018204596614 44.40911812479212983
28.009497869018190385759 196.48824444065178341 28.009497869018190385759 43.57185824828491150
29.009497869018190385759 197.67201759383300441 29.009497869018190385759 42.72341738181948045
30.009497869018190385759 198.78204854243469413 30.009497869018190385759 41.87318030639854527
31.009497869018190385759 199.82098797230875675 31.009497869018190385759 40.99986352013070956
32.009497869018190385759 200.79788202847663570 32.009497869018190385759 40.12299018859679478
33.009497869018190385759 201.71998822979020360 33.009497869018190385759 39.26081149798392289
34.009497869018190385759 202.59093777435538186 34.009497869018190385759 38.39146536510219221
35.009497869018190385759 203.41303808844787682 35.009497869018190385759 37.48724269062690695
36.009497869018190385759 204.18940589884135761 36.009497869018190385759 36.64588648397236881
37.009497869018190385759 204.92184588181811478 37.009497869018190385759 35.81032548813598737
38.009497869018190385759 205.61203035125041083 38.009497869018190385759 34.96746952489144888
39.009497869018190385759 206.26149496641031078 39.009497869018190385759 34.10751888175428093
40.009497869018190385759 206.87398194097519877 40.009497869018190385759 33.21360125321507439
41.009497869018190385759 207.45186332024883313 41.009497869018190385759 32.38743155739055624
42.009497869018190385759 207.99730874922934731 42.009497869018190385759 31.54003034031638464
43.009497869018190385759 208.51243700014572369 43.009497869018190385759 30.72064322106111334
44.009497869018190385759 208.99912322096503203 44.009497869018190385759 29.89490811109802593
46.009497869018190385759 209.89383471909124523 46.009497869018190385759 28.30208346271954767
48.009497869018190385759 210.69352605431220127 48.009497869018190385759 26.77953094562652225
50.009497869018218807469 211.40847350330025733 50.009497869018218807469 25.30553579495438044
52.009497869018190385759 212.04851737032146275 52.009497869018190385759 23.88765815210733479
54.009497869018190385759 212.62172913081653292 54.009497869018190385759 22.53735837267041831
56.009497869018190385759 213.13557789910902329 56.009497869018190385759 21.24301877669035932
58.009497869018190385759 213.59636264069627032 58.009497869018190385759 20.01018303218231509
60.009497869018190385759 214.01004071702519127 60.009497869018190385759 18.83729944303236792
62.009497869018190385759 214.38139202619046841 62.009497869018190385759 17.71987707429722292
64.009497869018190385759 214.71532067699033064 64.009497869018190385759 16.65767659584550486
66.009497869018218807469 215.01549091326910457 66.009497869018218807469 15.66043479163577956
68.009497869018190385759 215.28552203060559123 68.009497869018190385759 14.71771966102863871
70.009497869018190385759 215.52859926989415840 70.009497869018190385759 13.81352073239317590
72.009497869018190385759 215.74733182234581363 72.009497869018190385759 12.97206700063765084
74.009497869018218807469 215.94441688819463820 74.009497869018218807469 12.17025724601593595
76.009497869018190385759 216.12205520120303959 76.009497869018190385759 11.41202518474598726
78.009497869018190385759 216.28218993926151370 78.009497869018190385759 10.69368925068920007
80.009497869018218807469 216.42662801099200465 80.009497869018218807469 10.01946910426696569
82.009497869018190385759 216.55687982579240725 82.009497869018190385759 9.37897169806046627
84.009497869018190385759 216.67430043793251571 84.009497869018190385759 8.75435631707440720
86.009497869018218807469 216.78026804148973383 86.009497869018218807469 8.18240597375799261
88.009497869018190385759 216.87589937638568927 88.009497869018190385759 7.62493954503084659
91.009497869018190385759 217.00212859159736922 91.009497869018190385759 6.85366763402231527
94.009497869018190385759 217.11048333674807509 94.009497869018190385759 6.13628469324571135
97.009497869018190385759 217.20326655528432980 97.009497869018190385759 5.48810794473586050
99.504748934509137825444 217.27021507487344820 99.504748934509137825444 4.66428618189205846
nan nan nan nan

