Time Pressure difference Time.1 Pressure.1 difference.1
(hr) (psi) (hr) (psi)
0.000200000000006639311 0.00905109435194425 0.000200000000006639311 0.00725493072717349
0.000399999999999067768 0.01692516935258958 0.000399999999999067768 0.01546491273944287
0.000600000000019917934 0.02416924364272355 0.000600000000019917934 0.02123002675210940
0.000799999999998135536 0.03096330155208476 0.000799999999998135536 0.02658041577119404
0.001007140329448930061 0.03762980916961031 0.001007140329448930061 0.03176299170369072
0.001267914553963578328 0.04559054815622574 0.001267914553963578328 0.03784293436040423
0.001596209851982166583 0.05505689714275846 0.001596209851982166583 0.04489524865793241
0.002009509145210586212 0.06626523485141939 0.002009509145210586212 0.05303144907890082
0.002529822128153114136 0.07947827754984055 0.002529822128153114136 0.06236897943455619
0.003184857364431081805 0.09498646485103246 0.003184857364431081805 0.07303170744301095
0.004009497869020606231 0.11310952186606968 0.004009497869020606231 0.08515104739306131
0.005047658755856332391 0.13419835769520039 0.005047658755856332391 0.09886779138440506
0.006354625877790454069 0.15863746482102029 0.006354625877790454069 0.11433457300238123
0.007999999999995566213 0.18684794362082385 0.007999999999995566213 0.13171877574942412
0.010071403294347192059 0.21929122911067644 0.010071403294347192059 0.15120598888610753
0.012679145539706837553 0.25647369000372672 0.012679145539706837553 0.17300495416774384
0.015962098519764822413 0.29895260961112291 0.015962098519764822413 0.19735521194205721
0.020095091452077440408 0.34734427214835339 0.020095091452077440408 0.22453591579505011
0.025298221281346400247 0.40233395480138645 0.025298221281346400247 0.25486776941523787
0.031848573644282396344 0.46468483860917498 0.031848573644282396344 0.28869466661459686
0.040094978690177640601 0.53523945402897077 0.040094978690177640601 0.32633545074246684
0.050476587558421215363 0.61490625736677396 0.050476587558421215363 0.36801116130021561
0.063546258777947173257 0.70462742390580779 0.063546258777947173257 0.41377635685475306
0.079999999999998294697 0.80533361487381316 0.079999999999998294697 0.46348943114478408
0.100714032943528764008 0.91789787168592818 0.100714032943528764008 0.51682813884632650
0.126791455396883634421 1.04309724036809581 0.126791455396883634421 0.57337439837867576
0.159620985197506115583 1.18160531292655069 0.159620985197506115583 0.63275640704430214
0.200950914520774404082 1.33401870856477456 0.200950914520774404082 0.69466786306468764
0.252982212813464002465 1.50085774582780562 0.252982212813464002465 0.75901267210735324
0.318485736442795541734 1.68265837727623624 0.318485736442795541734 0.82610858089811479
0.400949786901833249431 1.88006485708832538 0.400949786901833249431 0.89621700089301914
0.504765875584169521062 2.09370376103841860 0.504765875584169521062 0.97009968024302218
0.635462587779429100010 2.32452872863293125 0.635462587779429100010 1.04862958556522634
0.800000000000011368684 2.57351265512357541 0.800000000000011368684 1.13302590402457137
1.007140329435344483500 2.84209269904933315 1.007140329435344483500 1.22454975392235754
1.267914553968893187630 3.13171743247899537 1.267914553968893187630 1.32408247731694506
1.596209851975103788391 3.44408727780660051 1.596209851975103788391 1.43229019736655117
2.009509145207672986544 3.78076826786125952 2.009509145207672986544 1.54842482078221022
2.529822128134725289783 4.14287603190681075 2.529822128134725289783 1.67030209884918235
3.184857364427998049905 4.53067694693935241 3.184857364427998049905 1.79417791749919942
4.009497869018190385759 4.94322068462329955 4.009497869018190385759 1.91510717068068659
5.009497869018204596614 5.36344545764751857 5.009497869018204596614 2.02406217161227309
6.009497869018190385759 5.71993102001646037 6.009497869018190385759 2.10408672490232274
7.009497869018190385759 6.02862846724497370 7.009497869018190385759 2.16283915031543517
8.009497869018204596614 6.29983232979958441 8.009497869018204596614 2.20523976405781807
9.009497869018190385759 6.54077601665440245 9.009497869018190385759 2.23457572405210003
10.009497869018190385759 6.75684184473434168 10.009497869018190385759 2.25360482972005416
11.009497869018204596614 6.95198888630806255 11.009497869018204596614 2.26707859884999596
12.009497869018190385759 7.12932917317377690 12.009497869018190385759 2.27413030952720385
13.009497869018190385759 7.29131666508987575 13.009497869018190385759 2.27599574023103379
14.009497869018204596614 7.43993721567237287 14.009497869018204596614 2.27358923826188963
15.009497869018190385759 7.57682496408640382 15.009497869018190385759 2.26702383627660931
16.009497869018190385759 7.70334676652908268 16.009497869018190385759 2.25654187147614449
17.009497869018190385759 7.82051712206203575 17.009497869018190385759 2.24057077546103134
18.009497869018204596614 7.92926387194001325 18.009497869018204596614 2.22209008005705932
19.009497869018190385759 8.03035724691850206 19.009497869018190385759 2.19780875117084040
20.009497869018190385759 8.12442836578791194 20.009497869018190385759 2.17391307445655224
21.009497869018204596614 8.21203645065152621 21.009497869018204596614 2.14840176663193994
22.009497869018190385759 8.29379863661792527 22.009497869018190385759 2.12166137119787823
23.009497869018190385759 8.37035032586786087 23.009497869018190385759 2.09303356014963660
24.009497869018204596614 8.44211836004347127 24.009497869018204596614 2.06431987988249821
25.009497869018190385759 8.50948892672916912 25.009497869018190385759 2.03405288234140880
26.009497869018190385759 8.57281194043649286 26.009497869018190385759 1.99924772108933957
27.009497869018204596614 8.63237338281282085 27.009497869018204596614 1.96366848851121634
28.009497869018190385759 8.68825570655943302 28.009497869018190385759 1.92664679329150967
29.009497869018190385759 8.74059941741438529 29.009497869018190385759 1.88913070055664378
30.009497869018190385759 8.78968241854303223 30.009497869018190385759 1.85153518361626257
31.009497869018190385759 8.83562191714290357 31.009497869018190385759 1.81291913524387494
32.009497869018190385759 8.87881791282379496 32.009497869018190385759 1.77414582466584481
33.009497869018190385759 8.91959131628324009 33.009497869018190385759 1.73602227712173796
34.009497869018190385759 8.95810269070278942 34.009497869018190385759 1.69758180185826024
35.009497869018190385759 8.99445406513545009 35.009497869018190385759 1.65759916659234618
36.009497869018190385759 9.02878325403040272 36.009497869018190385759 1.62039634112802999
37.009497869018190385759 9.06117005599876002 37.009497869018190385759 1.58344976648220337
38.009497869018190385759 9.09168841689202623 38.009497869018190385759 1.54618062525030209
39.009497869018190385759 9.12040624001134148 39.009497869018190385759 1.50815559681226419
40.009497869018190385759 9.14748899739005950 40.009497869018190385759 1.46862862684284323
41.009497869018190385759 9.17304157538515241 41.009497869018190385759 1.43209731376216731
42.009497869018190385759 9.19715991068020777 42.009497869018190385759 1.39462719191875184
43.009497869018190385759 9.21993769048263445 43.009497869018190385759 1.35839578868637578
44.009497869018190385759 9.24145782949845263 44.009497869018190385759 1.32188369198732758
46.009497869018190385759 9.28101990254485187 46.009497869018190385759 1.25145267012025219
48.009497869018190385759 9.31638040376210341 48.009497869018190385759 1.18412891936443798
50.009497869018218807469 9.34799372633640679 50.009497869018218807469 1.11895226304220041
52.009497869018190385759 9.37629498576251486 52.009497869018190385759 1.05625699312039245
54.009497869018190385759 9.40164108401569720 54.009497869018190385759 0.99654986001603885
56.009497869018190385759 9.42436228805584086 56.009497869018190385759 0.93931715679243077
58.009497869018190385759 9.44473712356820094 58.009497869018190385759 0.88480401162710931
60.009497869018190385759 9.46302901129703322 60.009497869018190385759 0.83294181210687335
62.009497869018190385759 9.47944930728053059 62.009497869018190385759 0.78353197947572750
64.009497869018190385759 9.49421485986691849 64.009497869018190385759 0.73656393110881480
66.009497869018218807469 9.50748769344387057 66.009497869018218807469 0.69246820507233042
68.009497869018190385759 9.51942784489072480 68.009497869018190385759 0.65078352242643633
70.009497869018190385759 9.53017615819259944 70.009497869018190385759 0.61080193714663700
72.009497869018190385759 9.53984800574998459 72.009497869018190385759 0.57359479934792335
74.009497869018218807469 9.54856265151881090 74.009497869018218807469 0.53814062652451411
76.009497869018190385759 9.55641740685591756 76.009497869018190385759 0.50461335850917621
78.009497869018190385759 9.56349819459319583 78.009497869018190385759 0.47285020496244762
80.009497869018218807469 9.56988491205066616 80.009497869018218807469 0.44303774950840324
82.009497869018190385759 9.57564434603843928 82.009497869018190385759 0.41471643562852400
84.009497869018190385759 9.58083641392218688 84.009497869018190385759 0.38709738816995676
86.009497869018218807469 9.58552205625634812 86.009497869018218807469 0.36180706686685005
88.009497869018190385759 9.58975065269732596 88.009497869018190385759 0.33715719076667011
91.009497869018190385759 9.59533221663525637 91.009497869018190385759 0.30305333075608876
94.009497869018190385759 9.60012341284940440 94.009497869018190385759 0.27133231636800764
97.009497869018190385759 9.60422607217243751 97.009497869018190385759 0.24267143973321834
99.504748934509137825444 9.60718638086175147 99.504748934509137825444 0.20624394681835634
nan nan nan nan

