Time Pressure difference Time.1 Pressure.1 difference.1
(hr) (psi) (hr) (psi)
0.000200000000006639311 0.66978098204387460 0.000200000000006639311 0.53686487381083814
0.000399999999999067768 1.25246253209162850 0.000399999999999067768 1.14440354271877265
0.000600000000019917934 1.78852402956154322 0.000600000000019917934 1.57102197965609536
0.000799999999998135536 2.29128431485427209 0.000799999999998135536 1.96695076706835903
0.001007140329448930061 2.78460587855116293 0.001007140329448930061 2.35046138607311317
0.001267914553963578328 3.37370056356070469 0.001267914553963578328 2.80037714266991333
0.001596209851982166583 4.07421038856412565 0.001596209851982166583 3.32224840068699834
0.002009509145210586212 4.90362737900503465 0.002009509145210586212 3.92432723183866017
0.002529822128153114136 5.88139253868820155 0.002529822128153114136 4.61530447815715750
0.003184857364431081805 7.02899839897640266 0.003184857364431081805 5.40434635078280934
0.004009497869020606231 8.37010461808915807 0.004009497869020606231 6.30117750708653723
0.005047658755856332391 9.93067846944482824 0.005047658755856332391 7.31621656244597496
0.006354625877790454069 11.73917239675550128 0.006354625877790454069 8.46075840217621078
0.007999999999995566213 13.82674782794096657 0.007999999999995566213 9.74718940545738377
0.010071403294347192059 16.22755095419005400 0.010071403294347192059 11.18924317757195830
0.012679145539706837553 18.97905306027577765 0.012679145539706837553 12.80236660841304364
0.015962098519764822413 22.12249311122309336 0.015962098519764822413 14.60428568371223434
0.020095091452077440408 25.70347613897815009 0.020095091452077440408 16.61565776883371015
0.025298221281346400247 29.77271265530259470 0.025298221281346400247 18.86021493672760130
0.031848573644282396344 34.38667805707894587 0.031848573644282396344 21.36340532948016957
0.040094978690177640601 39.60771959814383081 0.040094978690177640601 24.14882335494254306
0.050476587558421215363 45.50306304514126765 0.050476587558421215363 27.23282593621595638
0.063546258777947173257 52.14242936902977732 0.063546258777947173257 30.61945040725172618
0.079999999999998294697 59.59468750066216813 0.079999999999998294697 34.29821790471402920
0.100714032943528764008 67.92444250475868728 0.100714032943528764008 38.24528227462815977
0.126791455396883634421 77.18919578723907193 0.126791455396883634421 42.42970548002200104
0.159620985197506115583 87.43879315656475626 0.159620985197506115583 46.82397412127836134
0.200950914520774404082 98.71738443379331329 0.200950914520774404082 51.40542186678688097
0.252982212813464002465 111.06347319125761430 0.252982212813464002465 56.16693773594414552
0.318485736442795541734 124.51671991844146703 0.318485736442795541734 61.13203498646049638
0.400949786901833249431 139.12479942453609283 0.400949786901833249431 66.32005806608340492
0.504765875584169521062 154.93407831684297093 0.504765875584169521062 71.78737633798365891
0.635462587779429100010 172.01512591883690106 0.635462587779429100010 77.59858933182673013
0.800000000000011368684 190.43993647914456346 0.800000000000011368684 83.84391689781828916
1.007140329435344483500 210.31485972965066367 1.007140329435344483500 90.61668179025444658
1.267914553968893187630 231.74709000344566334 1.267914553968893187630 97.98210332145393409
1.596209851975103788391 254.86245855768848401 1.596209851975103788391 105.98947460512479779
2.009509145207672986544 279.77685182173320300 2.009509145207672986544 114.58343673788357364
2.529822128134725289783 306.57282636110397789 2.529822128134725289783 123.60235531483949956
3.184857364427998049905 335.27009407351209802 3.184857364427998049905 132.76916589494075538
4.009497869018190385759 365.79833066212415815 4.009497869018190385759 141.71793063037080174
5.009497869018204596614 396.89496386591633836 5.009497869018204596614 149.78060069930819509
6.009497869018190385759 423.27489548121803864 6.009497869018190385759 155.70241764277187713
7.009497869018190385759 446.11850657612808391 7.009497869018190385759 160.05009712334216943
8.009497869018204596614 466.18759240516925502 8.009497869018204596614 163.18774254027852066
9.009497869018190385759 484.01742523242586458 9.009497869018190385759 165.35860357985541214
10.009497869018190385759 500.00629651034120116 10.009497869018190385759 166.76675739928401754
11.009497869018204596614 514.44717758679666986 11.009497869018204596614 167.76381631489971369
12.009497869018190385759 527.57035881485944628 12.009497869018190385759 168.28564290501307710
13.009497869018190385759 539.55743321665079293 13.009497869018190385759 168.42368477709652552
14.009497869018204596614 550.55535395975562096 14.009497869018204596614 168.24560363137982222
15.009497869018190385759 560.68504734239388654 15.009497869018190385759 167.75976388446906640
16.009497869018190385759 570.04766072315214842 16.009497869018190385759 166.98409848923469667
17.009497869018190385759 578.71826703259068836 17.009497869018190385759 165.80223738411632439
18.009497869018204596614 586.76552652356099316 18.009497869018204596614 164.43466592422240069
19.009497869018190385759 594.24643627196928719 19.009497869018190385759 162.63784758664218089
20.009497869018190385759 601.20769906830537366 20.009497869018190385759 160.86956750978487207
21.009497869018204596614 607.69069734821300699 21.009497869018204596614 158.98173073076355877
22.009497869018190385759 613.74109910972640591 22.009497869018190385759 157.00294146864300160
23.009497869018190385759 619.40592411422176156 23.009497869018190385759 154.88448345107309478
24.009497869018204596614 624.71675864321696281 24.009497869018204596614 152.75967111130486842
25.009497869018190385759 629.70218057795852928 25.009497869018190385759 150.51991329326423852
26.009497869018190385759 634.38808359230051792 26.009497869018190385759 147.94433136061113032
27.009497869018204596614 638.79563032814871804 27.009497869018204596614 145.31146814983003424
28.009497869018190385759 642.93092228539796906 28.009497869018190385759 142.57186270357172475
29.009497869018190385759 646.80435688866452892 29.009497869018190385759 139.79567184119164835
30.009497869018190385759 650.43649897218426759 30.009497869018190385759 137.01360358760342706
31.009497869018190385759 653.83602186857501692 31.009497869018190385759 134.15601600804671989
32.009497869018190385759 657.03252554896096171 32.009497869018190385759 131.28679102527249256
33.009497869018190385759 660.04975740495979153 33.009497869018190385759 128.46564850700860916
34.009497869018190385759 662.89959911200628540 34.009497869018190385759 125.62105333751125613
35.009497869018190385759 665.58960082002329273 35.009497869018190385759 122.66233832783362345
36.009497869018190385759 668.12996079824972639 36.009497869018190385759 119.90932924347423238
37.009497869018190385759 670.52658414390828057 37.009497869018190385759 117.17528271968305376
38.009497869018190385759 672.78494285000988384 38.009497869018190385759 114.41736626852237180
39.009497869018190385759 674.91006176083919854 39.009497869018190385759 111.60351416410755121
40.009497869018190385759 676.91418580686445239 40.009497869018190385759 108.67851838637039918
41.009497869018190385759 678.80507657850125725 41.009497869018190385759 105.97520121840038598
42.009497869018190385759 680.58983339033545690 42.009497869018190385759 103.20241220198764154
43.009497869018190385759 682.27538909571501335 43.009497869018190385759 100.52128836279180746
44.009497869018190385759 683.86787938288557598 44.009497869018190385759 97.81939320706224805
46.009497869018190385759 686.79547278831898893 46.009497869018190385759 92.60749758889865291
48.009497869018190385759 689.41214987839566675 48.009497869018190385759 87.62554003296840222
50.009497869018218807469 691.75153574889407082 50.009497869018218807469 82.80246746512283096
52.009497869018190385759 693.84582894642608153 52.009497869018190385759 78.16301749090902717
54.009497869018190385759 695.72144021716155748 54.009497869018190385759 73.74468964118686642
56.009497869018190385759 697.40280931613233406 56.009497869018190385759 69.50946960263988217
58.009497869018190385759 698.91054714404685910 58.009497869018190385759 65.47549686040608208
60.009497869018190385759 700.26414683598045485 60.009497869018190385759 61.63769409590862125
62.009497869018190385759 701.47924873875933827 62.009497869018190385759 57.98136648120383541
64.009497869018190385759 702.57189963015196099 64.009497869018190385759 54.50573090205229931
66.009497869018218807469 703.55408931484646473 66.009497869018218807469 51.24264717535245239
68.009497869018190385759 704.43766052191358540 68.009497869018190385759 48.15798065955629426
70.009497869018190385759 705.23303570625228076 70.009497869018190385759 45.19934334885114424
72.009497869018190385759 705.94875242549881023 72.009497869018190385759 42.44601515174632311
74.009497869018218807469 706.59363621239197073 74.009497869018218807469 39.82240636281404988
76.009497869018190385759 707.17488810733777882 76.009497869018190385759 37.34138852967904398
78.009497869018190385759 707.69886639989647392 78.009497869018190385759 34.99091516722112516
80.009497869018218807469 708.17148349174931354 80.009497869018218807469 32.78479346362183833
82.009497869018190385759 708.59768160684450322 82.009497869018190385759 30.68901623651077770
84.009497869018190385759 708.98189463024175438 84.009497869018190385759 28.64520672457680206
86.009497869018218807469 709.32863216296982500 86.009497869018218807469 26.77372294814690434
88.009497869018190385759 709.64154829960205007 88.009497869018190385759 24.94963211673358572
91.009497869018190385759 710.05458403100897158 91.009497869018190385759 22.42594647595056756
94.009497869018190385759 710.40913255085604305 94.009497869018190385759 20.07859141123256919
97.009497869018190385759 710.71272934076023375 97.009497869018190385759 17.95768654025815536
99.504748934509137825444 710.93179218376963036 99.504748934509137825444 15.26205206455836816
nan nan nan nan

