Time Pressure difference Time.1 Pressure.1 difference.1
(hr) (psi) (hr) (psi)
0.000200000000006639311 0.28893878123514338 0.000200000000006639311 0.23159971167515364
0.000399999999999067768 0.54030348317882104 0.000399999999999067768 0.49368759898990716
0.000600000000019917934 0.77155662397925184 0.000600000000019917934 0.67772777708656917
0.000799999999998135536 0.98844385723962880 0.000799999999998135536 0.84852865731119431
0.001007140329448930061 1.20125929272217546 0.001007140329448930061 1.01397242746397298
0.001267914553963578328 1.45539057575643715 0.001267914553963578328 1.20806290458213494
0.001596209851982166583 1.75758556263421251 0.001596209851982166583 1.43319447638784236
0.002009509145210586212 2.11539018948761903 0.002009509145210586212 1.69292702828798758
0.002529822128153114136 2.53719116793721744 0.002529822128153114136 1.99100972810313959
0.003184857364431081805 3.03226022409065177 0.003184857364431081805 2.33139681452688796
0.004009497869020606231 3.61080396726299346 0.004009497869020606231 2.71828343600926470
0.005047658755856332391 4.28402449565447441 0.005047658755856332391 3.15616410957908444
0.006354625877790454069 5.06419599236333973 0.006354625877790454069 3.64991136892217005
0.007999999999995566213 5.96476127712629989 0.007999999999995566213 4.20486861046238580
0.010071403294347192059 7.00045077545620842 0.010071403294347192059 4.82696041444112556
0.012679145539706837553 8.18742933473435208 0.012679145539706837553 5.52285045997028412
0.015962098519764822413 9.54348715297046191 0.015962098519764822413 6.30018561199644189
0.020095091452077440408 11.08829791858204850 0.020095091452077440408 7.16787731191890742
0.025298221281346400247 12.84373778789041332 0.025298221281346400247 8.13616340825566908
0.031848573644282396344 14.83416984790827797 0.031848573644282396344 9.21602204961982352
0.040094978690177640601 17.08649026323252684 0.040094978690177640601 10.41763169677874679
0.050476587558421215363 19.62969975440086046 0.050476587558421215363 11.74804861073765316
0.063546258777947173257 22.49387545545463141 0.063546258777947173257 13.20901446882480990
0.079999999999998294697 25.70872693635634221 0.079999999999998294697 14.79600876346810701
0.100714032943528764008 29.30212436535847687 0.100714032943528764008 16.49874443240195987
0.126791455396883634421 33.29887344251997661 0.126791455396883634421 18.30387502516541787
0.159620985197506115583 37.72047729727066212 0.159620985197506115583 20.19953145564502961
0.200950914520774404082 42.58598185033702777 0.200950914520774404082 22.17593562860348655
0.252982212813464002465 47.91199727065686886 0.252982212813464002465 24.23001991727320359
0.318485736442795541734 53.71563281304907633 0.318485736442795541734 26.37192777482443162
0.400949786901833249431 60.01745505320423035 0.400949786901833249431 28.61000425927714730
0.504765875584169521062 66.83746621776489860 0.504765875584169521062 30.96856671545032924
0.635462587779429100010 74.20610941405125516 0.635462587779429100010 33.47548292381299007
0.800000000000011368684 82.15444245202182572 0.800000000000011368684 36.16967309001516639
1.007140329435344483500 90.72834385426718029 1.007140329435344483500 39.09139599059833614
1.267914553968893187630 99.97405649836792918 1.267914553968893187630 42.26878677588709365
1.596209851975103788391 109.94586309921071177 1.596209851975103788391 45.72311014670145113
2.009509145207672986544 120.69375624326328023 2.009509145207672986544 49.43048466343209668
2.529822128134725289783 132.25335024933281147 2.529822128134725289783 53.32118238633928797
3.184857364427998049905 144.63314869075625779 3.184857364427998049905 57.27567967401290616
4.009497869018190385759 157.80281416297458463 4.009497869018190385759 61.13611352557575884
5.009497869018204596614 171.21768191720926211 5.009497869018204596614 64.61429240146870256
6.009497869018190385759 182.59779794667932151 6.009497869018190385759 67.16892237188183401
7.009497869018190385759 192.45237030051262650 7.009497869018190385759 69.04448056776196552
8.009497869018204596614 201.11003206667905374 8.009497869018204596614 70.39803862184572836
9.009497869018190385759 208.80169591627517889 9.009497869018190385759 71.33453272935550160
10.009497869018190385759 215.69918196651934750 10.009497869018190385759 71.94200033337095590
11.009497869018204596614 221.92887598598812815 11.009497869018204596614 72.37212450174988021
12.009497869018190385759 227.59012360516285867 12.009497869018190385759 72.59723680413766544
13.009497869018190385759 232.76126277017681332 13.009497869018190385759 72.65678709199070795
14.009497869018204596614 237.50568803877192181 14.009497869018204596614 72.57996414451416456
15.009497869018190385759 241.87556616121983666 15.009497869018190385759 72.37037631190715103
16.009497869018190385759 245.91453139304380215 16.009497869018190385759 72.03575974327692677
17.009497869018190385759 249.65496966582648497 17.009497869018190385759 71.52591321664061752
18.009497869018204596614 253.12650052731581241 18.009497869018204596614 70.93595255566766866
19.009497869018190385759 256.35371211316754625 19.009497869018190385759 70.16081782583836457
20.009497869018190385759 259.35675167707557875 20.009497869018190385759 69.39799429995916569
21.009497869018204596614 262.15347130926028285 21.009497869018204596614 68.58359485786577636
22.009497869018190385759 264.76357186126449506 22.009497869018190385759 67.72995915747073070
23.009497869018190385759 267.20733732578173658 23.009497869018190385759 66.81607134323839148
24.009497869018204596614 269.49839380138774914 24.009497869018204596614 65.89944231932591379
25.009497869018190385759 271.64906958404651505 25.009497869018190385759 64.93322662859112882
26.009497869018190385759 273.67053502162650602 26.009497869018190385759 63.82213878862122414
27.009497869018204596614 275.57191952825547787 27.009497869018204596614 62.68634021016575275
28.009497869018190385759 277.35585524785875577 28.009497869018190385759 61.50449378584434612
29.009497869018190385759 279.02682755592076091 29.009497869018190385759 60.30686467161593356
30.009497869018190385759 280.59370797656600871 30.009497869018190385759 59.10670009236530120
31.009497869018190385759 282.06023812417737417 31.009497869018190385759 57.87395700970831314
32.009497869018190385759 283.43918721706734232 32.009497869018190385759 56.63619363356350078
33.009497869018190385759 284.74079971211881457 33.009497869018190385759 55.41917269273240265
34.009497869018190385759 285.97020128012752593 34.009497869018190385759 54.19203444393676961
35.009497869018190385759 287.13064900240090083 35.009497869018190385759 52.91566570275566761
36.009497869018190385759 288.22654234020126296 36.009497869018190385759 51.72803704370249278
37.009497869018190385759 289.26042871072968410 37.009497869018190385759 50.54858869923957343
38.009497869018190385759 290.23466869309157801 38.009497869018190385759 49.35884303683656782
39.009497869018190385759 291.15142996959281163 39.009497869018190385759 48.14496712900689346
40.009497869018190385759 292.01599491668270048 40.009497869018190385759 46.88314462613691802
41.009497869018190385759 292.83171182960296619 41.009497869018190385759 45.71695270856149307
42.009497869018190385759 293.60164330248363740 42.009497869018190385759 44.52079112663707861
43.009497869018190385759 294.32878011925333794 43.009497869018190385759 43.36417325421892599
44.009497869018190385759 295.01576917245063214 44.009497869018190385759 42.19859478267238018
46.009497869018190385759 296.27871227354717121 46.009497869018190385759 39.95021985383881713
48.009497869018190385759 297.40752827394408087 48.009497869018190385759 37.80103857971090520
50.009497869018218807469 298.41672280227754754 50.009497869018218807469 35.72039916634717116
52.009497869018190385759 299.32018608395719639 52.009497869018190385759 33.71897324192021017
54.009497869018190385759 300.12931152819345471 54.009497869018190385759 31.81293783897354999
56.009497869018190385759 300.85464227255187097 56.009497869018190385759 29.98589385145067610
58.009497869018190385759 301.50506971390802846 58.009497869018190385759 28.24566652501925645
60.009497869018190385759 302.08900305294372401 60.009497869018190385759 26.59006554033479830
62.009497869018190385759 302.61318942472462368 62.009497869018190385759 25.01275165249438004
64.009497869018190385759 303.08455129575162346 64.009497869018190385759 23.51338703155062859
66.009497869018218807469 303.50826098301592992 66.009497869018218807469 22.10571577730900827
68.009497869018190385759 303.88942735612698698 68.009497869018190385759 20.77501244669008784
70.009497869018190385759 304.23254658845604581 70.009497869018190385759 19.49867722429648964
72.009497869018190385759 304.54130172201871574 72.009497869018190385759 18.31091090226063045
74.009497869018218807469 304.81950002925435683 74.009497869018218807469 17.17910461597487526
76.009497869018190385759 305.07024798809271715 76.009497869018190385759 16.10881106010062425
78.009497869018190385759 305.29628851970585401 78.009497869018190385759 15.09483346610890564
80.009497869018218807469 305.50017219238662847 80.009497869018218807469 14.14312815738364293
82.009497869018190385759 305.68403104661172165 82.009497869018190385759 13.23902467583365095
84.009497869018190385759 305.84977782905434651 84.009497869018190385759 12.35733969927169618
86.009497869018218807469 305.99935794972191161 86.009497869018218807469 11.54999482690328882
88.009497869018190385759 306.13434775918386777 88.009497869018190385759 10.76309493601292999
91.009497869018190385759 306.31252845412552688 91.009497869018190385759 9.67439478952129406
94.009497869018190385759 306.46547817942331449 94.009497869018190385759 8.66176240713255119
97.009497869018190385759 306.59644768858163388 97.009497869018190385759 7.74681903763735491
99.504748934509137825444 306.69094985058666225 99.504748934509137825444 6.58394137920137457
nan nan nan nan

