Time Pressure difference Time.1 Pressure.1 difference.1
(hr) (psi) (hr) (psi)
0.000200000000006639311 0.45742838378672102 0.000200000000006639311 0.36665303751946010
0.000399999999999067768 0.85537202035779625 0.000399999999999067768 0.78157289767799754
0.000600000000019917934 1.22147639025149024 0.000600000000019917934 1.07293289047199036
0.000799999999998135536 1.56483762459382203 0.000799999999998135536 1.34333332012880646
0.001007140329448930061 1.90175266341799820 0.001007140329448930061 1.60525273456344642
0.001267914553963578328 2.30407616451079322 0.001267914553963578328 1.91252368267581385
0.001596209851982166583 2.78249087867633138 0.001596209851982166583 2.26893679755858413
0.002009509145210586212 3.34894302287557943 0.002009509145210586212 2.68012784960291039
0.002529822128153114136 4.01670987309578820 0.002529822128153114136 3.15203226834641637
0.003184857364431081805 4.80046980054833305 0.003184857364431081805 3.69091013769678433
0.004009497869020606231 5.71638122046213670 0.004009497869020606231 4.30340293363394455
0.005047658755856332391 6.78217853890358846 0.005047658755856332391 4.99662607227339439
0.006354625877790454069 8.01729341441617827 0.006354625877790454069 5.77829342019726688
0.007999999999995566213 9.44300761222163665 0.007999999999995566213 6.65686428210551018
0.010071403294347192059 11.08264134813187773 0.010071403294347192059 7.64171805370559021
0.012679145539706837553 12.96178571788064815 0.012679145539706837553 8.74340422216982205
0.015962098519764822413 15.10860496265443942 0.015962098519764822413 9.97402878814858518
0.020095091452077440408 17.55424513857447621 0.020095091452077440408 11.34769974441137741
0.025298221281346400247 20.33333910034698988 0.025298221281346400247 12.88062496198548246
0.031848573644282396344 23.48445684355599639 0.031848573644282396344 14.59018430506078090
0.040094978690177640601 27.05017856131028964 0.040094978690177640601 16.49249162598466967
0.050476587558421215363 31.07641623769003658 0.050476587558421215363 18.59871792109551336
0.063546258777947173257 35.61078596200889734 0.063546258777947173257 20.91162049642867160
0.079999999999998294697 40.70032192093039924 0.079999999999998294697 23.42404278939408968
0.100714032943528764008 46.38914628443498600 0.100714032943528764008 26.11969901707973207
0.126791455396883634421 52.71652976321837514 0.126791455396883634421 28.97745997959922448
0.159620985197506115583 59.71651466098029459 0.159620985197506115583 31.97853534062357639
0.200950914520774404082 67.41925319438898612 0.200950914520774404082 35.10744507949998194
0.252982212813464002465 75.85104146222062127 0.252982212813464002465 38.35933273650238817
0.318485736442795541734 85.03896568234516451 0.318485736442795541734 41.75025674231241624
0.400949786901833249431 95.01558546977152275 0.400949786901833249431 45.29342842974719474
0.504765875584169521062 105.81256700017237904 0.504765875584169521062 49.02734537843581819
0.635462587779429100010 117.47810574706427644 0.635462587779429100010 52.99612597818104831
0.800000000000011368684 130.06137033970685479 0.800000000000011368684 57.26138607262641500
1.007140329435344483500 143.63499255964705981 1.007140329435344483500 61.88686064053760560
1.267914553968893187630 158.27218101066921463 1.267914553968893187630 66.91709135363331029
1.596209851975103788391 174.05887242453357544 1.596209851975103788391 72.38574305152494048
2.009509145207672986544 191.07421169114212489 2.009509145207672986544 78.25500825030094632
2.529822128134725289783 209.37458099713651904 2.529822128134725289783 84.41449838030099784
3.184857364427998049905 228.97344262608879717 3.184857364427998049905 90.67499167669031124
4.009497869018190385759 249.82276844596214005 4.009497869018190385759 96.78657008747777013
5.009497869018204596614 271.06028197495533050 5.009497869018204596614 102.29298821148179854
6.009497869018190385759 289.07651385775494646 6.009497869018190385759 106.33730602006353649
7.009497869018190385759 304.67760792153444527 7.009497869018190385759 109.30656321209544046
8.009497869018204596614 318.38383389833279580 8.009497869018204596614 111.44942499892202648
9.009497869018190385759 330.56075714938020838 9.009497869018190385759 112.93201928478690377
10.009497869018190385759 341.48039169157402739 10.009497869018190385759 113.89372100969812607
11.009497869018204596614 351.34282294649210598 11.009497869018204596614 114.57466457264980875
12.009497869018190385759 360.30532821347469508 12.009497869018190385759 114.93104718149022858
13.009497869018190385759 368.49192684338834169 13.009497869018190385759 115.02532317936841366
14.009497869018204596614 376.00298082282688483 14.009497869018204596614 114.90370227215858279
15.009497869018190385759 382.92107703113595107 15.009497869018190385759 114.57189695644093774
16.009497869018190385759 389.31529427766213303 16.009497869018190385759 114.04215458152515339
17.009497869018190385759 395.23690378421207470 17.009497869018190385759 113.23499995983827660
18.009497869018204596614 400.73279722035294981 18.009497869018204596614 112.30101404596061343
19.009497869018190385759 405.84190086349661897 19.009497869018190385759 111.07387303994168803
20.009497869018190385759 410.59611048635832731 20.009497869018190385759 109.86622230138112855
21.009497869018204596614 415.02368831369636837 21.009497869018204596614 108.57692005209111130
22.009497869018190385759 419.15582340445968157 22.009497869018190385759 107.22550160592354018
23.009497869018190385759 423.02462800732195092 23.009497869018190385759 105.77869607833163457
24.009497869018204596614 426.65167404219704395 24.009497869018204596614 104.32755085252317429
25.009497869018190385759 430.05647883546640742 25.009497869018190385759 102.79790336140811746
26.009497869018190385759 433.25672652821356223 26.009497869018190385759 101.03890405813048403
27.009497869018204596614 436.26687019292489822 27.009497869018204596614 99.24078438091302701
28.009497869018190385759 439.09107686227287104 28.009497869018190385759 97.36976486096322958
29.009497869018190385759 441.73644748009621708 29.009497869018190385759 95.47375925120884688
30.009497869018190385759 444.21702684482852419 30.009497869018190385759 93.57373966429879886
31.009497869018190385759 446.53873842791449533 31.009497869018190385759 91.62214398886352740
32.009497869018190385759 448.72179759424875556 32.009497869018190385759 89.66260052349691989
33.009497869018190385759 450.78242267677603650 33.009497869018190385759 87.73589508222937638
34.009497869018190385759 452.72872829167170039 34.009497869018190385759 85.79317260160591729
35.009497869018190385759 454.56587083030700569 35.009497869018190385759 83.77251172701319604
36.009497869018190385759 456.30081522292107366 36.009497869018190385759 81.89233816316274783
37.009497869018190385759 457.93759436855276590 37.009497869018190385759 80.02511512144674555
38.009497869018190385759 459.47994537677385551 38.009497869018190385759 78.14159006072681279
39.009497869018190385759 460.93129997595775649 39.009497869018190385759 76.21986362351211142
40.009497869018190385759 462.30002086809764705 40.009497869018190385759 74.22223137198059817
41.009497869018190385759 463.59140884831117546 41.009497869018190385759 72.37599501090338094
42.009497869018190385759 464.81031240899210388 42.009497869018190385759 70.48231269927846654
43.009497869018190385759 465.96146635746850961 43.009497869018190385759 68.65123332053454419
44.009497869018190385759 467.04906107542183236 44.009497869018190385759 66.80596812582109578
46.009497869018190385759 469.04846738245902316 46.009497869018190385759 63.24649263607735605
48.009497869018190385759 470.83553271320789690 48.009497869018190385759 59.84405384787967819
50.009497869018218807469 472.43322140023224165 50.009497869018218807469 56.55012590913275261
52.009497869018190385759 473.86352351122860682 52.009497869018190385759 53.38160342154598226
54.009497869018190385759 475.14447632294718460 54.009497869018190385759 50.36409677157980980
56.009497869018190385759 476.29277101943756634 56.009497869018190385759 47.47164400097130965
58.009497869018190385759 477.32248386033143106 58.009497869018190385759 44.71663351069313563
60.009497869018190385759 478.24692772478078950 60.009497869018190385759 42.09559773493966617
62.009497869018190385759 479.07678422179299105 62.009497869018190385759 39.59850080888869428
64.009497869018190385759 479.82301253327426593 64.009497869018190385759 37.22480790296086894
66.009497869018218807469 480.49380112250946695 66.009497869018218807469 34.99627774865547281
68.009497869018190385759 481.09723800716966480 68.009497869018190385759 32.88959801801298255
70.009497869018190385759 481.64044122557976380 70.009497869018190385759 30.86899020810312066
72.009497869018190385759 482.12924152136457678 72.009497869018190385759 28.98859870550658613
74.009497869018218807469 482.56966631137379409 74.009497869018218807469 27.19679935589275388
76.009497869018190385759 482.96663356187207228 76.009497869018190385759 25.50238281080990888
78.009497869018190385759 483.32448568059459149 78.009497869018190385759 23.89712189694831679
80.009497869018218807469 483.64726055517593295 80.009497869018218807469 22.39044626361699386
82.009497869018190385759 483.93833348825040730 82.009497869018190385759 20.95913063138002030
84.009497869018190385759 484.20073261129812181 84.009497869018190385759 19.56330646366627590
86.009497869018218807469 484.43753776618621032 86.009497869018218807469 18.28517253319388303
88.009497869018190385759 484.65124452478022476 88.009497869018190385759 17.03940571797709680
91.009497869018190385759 484.93332817918184219 91.009497869018190385759 15.31584910051925519
94.009497869018190385759 485.17546786477379328 94.009497869018190385759 13.71271783490623264
97.009497869018190385759 485.38280995517618521 97.009497869018190385759 12.26424122344034018
99.504748934509137825444 485.53241940201303350 99.504748934509137825444 10.42325177382000767
nan nan nan nan

