Time Pressure difference Time.1 Pressure.1 difference.1
(hr) (psi) (hr) (psi)
0.000200000000006639311 0.25830430804394749 0.000200000000006639311 0.20704456152164338
0.000399999999999067768 0.48301829460082552 0.000399999999999067768 0.44134481741025433
0.000600000000019917934 0.68975303011157219 0.000600000000019917934 0.60587230192558350
0.000799999999998135536 0.88364499044795730 0.000799999999998135536 0.75856417316253755
0.001007140329448930061 1.07389686168657117 0.001007140329448930061 0.90646691708225058
0.001267914553963578328 1.30108410507382666 0.001267914553963578328 1.07997912674692054
0.001596209851982166583 1.57123914153564526 0.001596209851982166583 1.28124132708407101
0.002009509145210586212 1.89110785614435328 0.002009509145210586212 1.51343596986709250
0.002529822128153114136 2.26818776699929581 0.002529822128153114136 1.77991472078618052
0.003184857364431081805 2.71076757382561917 0.003184857364431081805 2.08421257395054305
0.004009497869020606231 3.22797173940860382 0.004009497869020606231 2.43007989098659616
0.005047658755856332391 3.82981466960918038 0.005047658755856332391 2.82153466181648271
0.006354625877790454069 4.52726918835373215 0.006354625877790454069 3.26293281414487968
0.007999999999995566213 5.33235285256351155 0.007999999999995566213 3.75905121561818056
0.010071403294347192059 6.25823430769699662 0.010071403294347192059 4.31518629821122346
0.012679145539706837553 7.31936453779866270 0.012679145539706837553 4.93729523047945928
0.015962098519764822413 8.53164755120973695 0.015962098519764822413 5.63221412542332533
0.020095091452077440408 9.91267115131070042 0.020095091452077440408 6.40790959692027595
0.025298221281346400247 11.48199209471648885 0.025298221281346400247 7.27353403485024863
0.031848573644282396344 13.26139039415414800 0.031848573644282396344 8.23890163953964816
0.040094978690177640601 15.27491057267293151 0.040094978690177640601 9.31311170965039814
0.050476587558421215363 17.54847857562101154 0.050476587558421215363 10.50247237249076981
0.063546258777947173257 20.10898263608113012 0.063546258777947173257 11.80854064562410599
0.079999999999998294697 22.98298239370651075 0.079999999999998294697 13.22727530420884001
0.100714032943528764008 26.19539310734456450 0.100714032943528764008 14.74947996246054771
0.126791455396883634421 29.76839047512026681 0.126791455396883634421 16.36322321526836276
0.159620985197506115583 33.72119777659617768 0.159620985197506115583 18.05789438564892890
0.200950914520774404082 38.07084160596394895 0.200950914520774404082 19.82475209207685651
0.252982212813464002465 42.83217105400891000 0.252982212813464002465 21.66105395014062296
0.318485736442795541734 48.02048138226797391 0.318485736442795541734 23.57586796255388961
0.400949786901833249431 53.65415861382836482 0.400949786901833249431 25.57665441010077600
0.504765875584169521062 59.75108425732717166 0.504765875584169521062 27.68515241308932673
0.635462587779429100010 66.33847371713980579 0.635462587779429100010 29.92627509574607103
0.800000000000011368684 73.44409192698819311 0.800000000000011368684 32.33481618408584524
1.007140329435344483500 81.10895318056174119 1.007140329435344483500 34.94676605424573523
1.267914553968893187630 89.37439749613132278 1.267914553968893187630 37.78727685266051139
1.596209851975103788391 98.28895231278836775 1.596209851975103788391 40.87535870946081218
2.009509145207672986544 107.89730979819441359 2.009509145207672986544 44.18966219309231036
2.529822128134725289783 118.23130829518666474 2.529822128134725289783 47.66785220561897773
3.184857364427998049905 129.29854979342306365 3.184857364427998049905 51.20307749170792277
4.009497869018190385759 141.07191338424956939 4.009497869018190385759 54.65421233250266653
5.009497869018204596614 153.06448190670997178 5.009497869018204596614 57.76362043601179153
6.009497869018190385759 163.23803141739281841 6.009497869018190385759 60.04739807221243808
7.009497869018190385759 172.04778164214502567 7.009497869018190385759 61.72410190515587658
8.009497869018204596614 179.78752264274200456 8.009497869018204596614 62.93415018965004037
9.009497869018190385759 186.66368478298335276 9.009497869018190385759 63.77135335564070573
10.009497869018190385759 192.82987110741851211 10.009497869018190385759 64.31441475585693013
11.009497869018204596614 198.39906744771471381 11.009497869018204596614 64.69893539794988158
12.009497869018190385759 203.46008640365161568 12.009497869018190385759 64.90018037189175004
13.009497869018190385759 208.08296021141109122 13.009497869018190385759 64.95341689428566667
14.009497869018204596614 212.32436207803465322 14.009497869018204596614 64.88473903039700019
15.009497869018190385759 216.23092782123507050 15.009497869018190385759 64.69737255835553924
16.009497869018190385759 219.84166541402228745 16.009497869018190385759 64.39823340904996485
17.009497869018190385759 223.18552709884730234 17.009497869018190385759 63.94244289969557826
18.009497869018204596614 226.28899203767267068 18.009497869018204596614 63.41503228470531184
19.009497869018190385759 229.17404143128956662 19.009497869018190385759 62.72208051418321872
20.009497869018190385759 231.85868643902423969 20.009497869018190385759 62.04013466333699256
21.009497869018204596614 234.35888639936280242 21.009497869018204596614 61.31208118618843628
22.009497869018190385759 236.69225339886537540 22.009497869018190385759 60.54895143957021730
23.009497869018190385759 238.87692083822895484 23.009497869018190385759 59.73195775503963034
24.009497869018204596614 240.92507012124065113 24.009497869018204596614 58.91251349510822166
25.009497869018190385759 242.84772244742472935 25.009497869018190385759 58.04873994989712571
26.009497869018190385759 244.65486383861070863 26.009497869018190385759 57.05545419416500152
27.009497869018204596614 246.35465577104284307 27.009497869018204596614 56.04007763366625028
28.009497869018190385759 247.94945131796535520 28.009497869018190385759 54.98353540855001143
29.009497869018190385759 249.44326029697975855 29.009497869018190385759 53.91288383896267788
30.009497869018190385759 250.84401363688186848 30.009497869018190385759 52.83996562474103342
31.009497869018190385759 252.15505625077057061 31.009497869018190385759 51.73792301349827483
32.009497869018190385759 253.38780351212523101 32.009497869018190385759 50.63139238084833949
33.009497869018190385759 254.55141371854475096 33.009497869018190385759 49.54340498555114181
34.009497869018190385759 255.65046909621037230 34.009497869018190385759 48.44637296072419730
35.009497869018190385759 256.68788139732708942 35.009497869018190385759 47.30533006198157864
36.009497869018190385759 257.66758363425219613 36.009497869018190385759 46.24361865834608665
37.009497869018190385759 258.59185313658002769 37.009497869018190385759 45.18922025883826876
38.009497869018190385759 259.46280020514933540 38.009497869018190385759 44.12561630522016287
39.009497869018190385759 260.28236269570822969 39.009497869018190385759 43.04044049364230773
40.009497869018190385759 261.05526292551633105 40.009497869018190385759 41.91240158143806127
41.009497869018190385759 261.78449418983780106 41.009497869018190385759 40.86985410813570496
42.009497869018190385759 262.47279437402750091 42.009497869018190385759 39.80051447706591716
43.009497869018190385759 263.12283716685055879 43.009497869018190385759 38.76652596943426232
44.009497869018190385759 263.73698882645584263 44.009497869018190385759 37.72452690209989612
46.009497869018190385759 264.86602952647234588 46.009497869018190385759 35.71453389343181328
48.009497869018190385759 265.87516383044157919 48.009497869018190385759 33.79321762186204126
50.009497869018218807469 266.77735942083126019 50.009497869018218807469 31.93317612220433688
52.009497869018190385759 267.58503382445331908 52.009497869018190385759 30.14394957289735189
54.009497869018190385759 268.30837247460181061 54.009497869018190385759 28.43999985122695762
56.009497869018190385759 268.95680068220900694 56.009497869018190385759 26.80666655153783395
58.009497869018190385759 269.53826714183099966 58.009497869018190385759 25.25094525489673458
60.009497869018190385759 270.06028947624611192 60.009497869018190385759 23.77087786858846030
62.009497869018190385759 270.52889946162133583 62.009497869018190385759 22.36079726042268589
64.009497869018190385759 270.95028561620205210 64.009497869018190385759 21.02040141856694433
66.009497869018218807469 271.32907186674430022 66.009497869018218807469 19.76197723706419751
68.009497869018190385759 271.66982541957372632 68.009497869018190385759 18.57236052463137810
70.009497869018190385759 271.97656574534266838 70.009497869018190385759 17.43134759087710250
72.009497869018190385759 272.25258539486492282 72.009497869018190385759 16.36951311985227520
74.009497869018218807469 272.50128797795991886 74.009497869018218807469 15.35770557235344036
76.009497869018190385759 272.72545061104187880 76.009497869018190385759 14.40088892360802930
78.009497869018190385759 272.92752539954432223 78.009497869018190385759 13.49441738777446709
80.009497869018218807469 273.10979249006129521 80.009497869018218807469 12.64361577443212248
82.009497869018190385759 273.27415787540473957 82.009497869018190385759 11.83536904755249353
84.009497869018190385759 273.42233150501004957 84.009497869018190385759 11.04716392392722746
86.009497869018218807469 273.55605252854655873 86.009497869018218807469 10.32541706212318111
88.009497869018190385759 273.67673016543909625 88.009497869018190385759 9.62194752111035534
91.009497869018190385759 273.83601941320620199 91.009497869018190385759 8.64867582388530209
94.009497869018190385759 273.97275278208684313 94.009497869018190385759 7.74340687481006462
97.009497869018190385759 274.08983636738258838 97.009497869018190385759 6.92546954930953884
99.504748934509137825444 274.17431902305457925 99.504748934509137825444 5.88588494381616822
nan nan nan nan

