Time Pressure difference Time.1 Pressure.1 difference.1
(hr) (psi) (hr) (psi)
0.000200000000006639311 0.35717010788826165 0.000200000000006639311 0.28629072792615379
0.000399999999999067768 0.66789322137526552 0.000399999999999067768 0.61026924887186107
0.000600000000019917934 0.95375553759362952 0.000600000000019917934 0.83776951721785553
0.000799999999998135536 1.22185951509380630 0.000799999999998135536 1.04890409927865713
0.001007140329448930061 1.48493016184693016 0.001007140329448930061 1.25341651876871851
0.001267914553963578328 1.79907316954952345 0.001267914553963578328 1.49334040976056692
0.001596209851982166583 2.17262986417193016 0.001596209851982166583 1.77163558165533264
0.002009509145210586212 2.61492811375216494 0.002009509145210586212 2.09270256749816319
0.002529822128153114136 3.13633510638986168 0.002529822128153114136 2.46117588076364013
0.003184857364431081805 3.74831203604458896 0.003184857364431081805 2.88194353217420085
0.004009497869020606231 4.46347574748413400 0.004009497869020606231 3.36019133174157325
0.005047658755856332391 5.29567365366444598 0.005047658755856332391 3.90147515232306086
0.006354625877790454069 6.26007841947564625 0.006354625877790454069 4.51181815001704400
0.007999999999995566213 7.37330731365251157 0.007999999999995566213 5.19782553534265901
0.010071403294347192059 8.65356927182900115 0.010071403294347192059 5.96682094604409041
0.012679145539706837553 10.12084638245475254 0.012679145539706837553 6.82704165292712251
0.015962098519764822413 11.79712990234661696 0.015962098519764822413 7.78794028663656679
0.020095091452077440408 13.70673935477732819 0.020095091452077440408 8.86053267714313186
0.025298221281346400247 15.87671683177778625 0.025298221281346400247 10.05747428538592381
0.031848573644282396344 18.33717863126975089 0.031848573644282396344 11.39233569025293669
0.040094978690177640601 21.12137230129707532 0.040094978690177640601 12.87769894083734457
0.050476587558421215363 24.26514692531961614 0.050476587558421215363 14.52228659592389448
0.063546258777947173257 27.80568218951379933 0.063546258777947173257 16.32825162049909906
0.079999999999998294697 31.77970341771278129 0.079999999999998294697 18.29000601363647860
0.100714032943528764008 36.22166216729855392 0.100714032943528764008 20.39483347908965172
0.126791455396883634421 41.16222186991024046 0.126791455396883634421 22.62623587448158702
0.159620985197506115583 46.62796350240927268 0.159620985197506115583 24.96954129336361206
0.200950914520774404082 52.64243057644070944 0.200950914520774404082 27.41266259632190483
0.252982212813464002465 59.22615566228186168 0.252982212813464002465 29.95180775315940025
0.318485736442795541734 66.40028827251609300 0.318485736442795541734 32.59951553851791317
0.400949786901833249431 74.19025166817776551 0.400949786901833249431 35.36610165062452182
0.504765875584169521062 82.62077149328527526 0.504765875584169521062 38.28162584343618846
0.635462587779429100010 91.72947982989950333 0.635462587779429100010 41.38053672268930683
0.800000000000011368684 101.55476862141493655 0.800000000000011368684 44.71094528958500547
1.007140329435344483500 112.15335035479293424 1.007140329435344483500 48.32261721247456876
1.267914553968893187630 123.58238791244035326 1.267914553968893187630 52.25033160489175543
1.596209851975103788391 135.90898257806045990 1.596209851975103788391 56.52037471146468306
2.009509145207672986544 149.19493241637121628 2.009509145207672986544 61.10322562009799441
2.529822128134725289783 163.48426187447645930 2.529822128134725289783 65.91269051612542285
3.184857364427998049905 178.78748259845292523 3.184857364427998049905 70.80102089823763833
4.009497869018190385759 195.06709317013482519 4.009497869018190385759 75.57307527378401346
5.009497869018204596614 211.64980921332130492 5.009497869018204596614 79.87260723362277304
6.009497869018190385759 225.71727794372648646 6.009497869018190385759 83.03049922114549020
7.009497869018190385759 237.89895413051320361 7.009497869018190385759 85.34896031629369872
8.009497869018204596614 248.60107578362976710 8.009497869018204596614 87.02215376628157628
9.009497869018190385759 258.10908434951602430 9.009497869018190385759 88.17979587990210177
10.009497869018190385759 266.63537433451665493 10.009497869018190385759 88.93071366510675091
11.009497869018204596614 274.33617682123355053 11.009497869018204596614 89.46240932384985456
12.009497869018190385759 281.33429737216516742 12.009497869018190385759 89.74068067595813147
13.009497869018190385759 287.72657301470047742 13.009497869018190385759 89.81429344142465254
14.009497869018204596614 293.59136858768675893 14.009497869018204596614 89.71932917141150199
15.009497869018190385759 298.99316973664042507 15.009497869018190385759 89.46024830845388465
16.009497869018190385759 303.98591470995535246 16.009497869018190385759 89.04661385132786222
17.009497869018190385759 308.60963720137107202 17.009497869018190385759 88.41636983165453501
18.009497869018204596614 312.90095125424824118 18.009497869018204596614 87.68709315917472225
19.009497869018190385759 316.89025135916858744 19.009497869018190385759 86.72891456543392508
20.009497869018190385759 320.60244243455372271 20.009497869018190385759 85.78595439970855807
21.009497869018204596614 324.05959224494102955 21.009497869018204596614 84.77923894478347222
22.009497869018190385759 327.28605389115347180 22.009497869018190385759 83.72402180188549892
23.009497869018190385759 330.30690132078558463 23.009497869018190385759 82.59432433513565286
24.009497869018204596614 333.13897836171548761 24.009497869018204596614 81.46123833690165839
25.009497869018190385759 335.79752457015871414 25.009497869018190385759 80.26685604931866180
26.009497869018190385759 338.29634811107081305 26.009497869018190385759 78.89339083991009716
27.009497869018204596614 340.64673426022898184 27.009497869018204596614 77.48937958509647217
28.009497869018190385759 342.85193672807605481 28.009497869018190385759 76.02844653527264995
29.009497869018190385759 344.91750008719844800 29.009497869018190385759 74.54800379888909845
30.009497869018190385759 346.85439082404423061 30.009497869018190385759 73.06442686116481866
31.009497869018190385759 348.66723411494695029 31.009497869018190385759 71.54057818308521632
32.009497869018190385759 350.37181455989286860 32.009497869018190385759 70.01052369642910378
33.009497869018190385759 351.98079578871551121 33.009497869018190385759 68.50610985872704362
34.009497869018190385759 353.50051387157924410 34.009497869018190385759 66.98918956563750271
35.009497869018190385759 354.93499503188354538 35.009497869018190385759 65.41141326629796993
36.009497869018190385759 356.28967763981506778 36.009497869018190385759 63.94333253835995379
37.009497869018190385759 357.56771067133570341 37.009497869018190385759 62.48536386195156922
38.009497869018190385759 358.77201214350839109 38.009497869018190385759 61.01466621180038885
39.009497869018190385759 359.90526162506290575 39.009497869018190385759 59.51414008959164903
40.009497869018190385759 360.97398889700770042 40.009497869018190385759 57.95434504387527141
41.009497869018190385759 361.98233293635252039 41.009497869018190385759 56.51276322769167848
42.009497869018190385759 362.93407955222676264 42.009497869018190385759 55.03413457340921155
43.009497869018190385759 363.83292578596854128 43.009497869018190385759 53.60438766123929355
44.009497869018190385759 364.68214357943895720 44.009497869018190385759 52.16356415303839356
46.009497869018190385759 366.24332384657759576 46.009497869018190385759 49.38424767474533184
48.009497869018190385759 367.63870362538148129 48.009497869018190385759 46.72754889491974239
50.009497869018218807469 368.88621397004436631 50.009497869018218807469 44.15557776466529560
52.009497869018190385759 370.00302520739774081 52.009497869018190385759 41.68152595928932413
54.009497869018190385759 371.00322123846558497 54.009497869018190385759 39.32539062986369061
56.009497869018190385759 371.89983490558824997 56.009497869018190385759 37.06690011034745424
58.009497869018190385759 372.70385726080672839 58.009497869018190385759 34.91572753574669719
60.009497869018190385759 373.42568329195216847 60.009497869018190385759 32.86916535467891975
62.009497869018190385759 374.07365343345480824 62.009497869018190385759 30.91937734392679005
64.009497869018190385759 374.65632485474839086 64.009497869018190385759 29.06594589683245999
66.009497869018218807469 375.18009128743892688 66.009497869018218807469 27.32586070785427168
68.009497869018190385759 375.65126803299546054 68.009497869018190385759 25.68091900036629838
70.009497869018190385759 376.07541301175405124 70.009497869018190385759 24.10318413509421731
72.009497869018190385759 376.45707899613398695 72.009497869018190385759 22.63493323580651051
74.009497869018218807469 376.80097232531926466 74.009497869018218807469 21.23585703131352176
76.009497869018190385759 377.11093305516038754 76.009497869018190385759 19.91281945501595274
78.009497869018190385759 377.39035183279304420 78.009497869018190385759 18.65939654967197114
80.009497869018218807469 377.64238152938395388 80.009497869018218807469 17.48295119213929638
82.009497869018190385759 377.86965765520920968 82.009497869018190385759 16.36534857518714148
84.009497869018190385759 378.07454464169853736 84.009497869018190385759 15.27545847162983428
86.009497869018218807469 378.25944729688512780 86.009497869018218807469 14.27746348482262029
88.009497869018190385759 378.42631421797909752 88.009497869018190385759 13.30474145102321160
91.009497869018190385759 378.64657131799134504 91.009497869018190385759 11.95895066752873248
94.009497869018190385759 378.83563929167263495 94.009497869018190385759 10.70719063821445616
97.009497869018190385759 378.99753654034304873 97.009497869018190385759 9.57618835254930723
99.504748934509137825444 379.11435487554444990 99.504748934509137825444 8.13870343983206013
nan nan nan nan

