Time Pressure difference Time.1 Pressure.1 difference.1
(hr) (psi) (hr) (psi)
0.000200000000006639311 0.70598535945165164 0.000200000000006639311 0.56588459671953206
0.000399999999999067768 1.32016320950198685 0.000399999999999067768 1.20626319367654422
0.000600000000019917934 1.88520100413243719 0.000600000000019917934 1.65594208666453291
0.000799999999998135536 2.41513752106261093 0.000799999999998135536 2.07327243015313512
0.001007140329448930061 2.93512511522960473 0.001007140329448930061 2.47751335288787633
0.001267914553963578328 3.55606275618560730 0.001267914553963578328 2.95174888011153014
0.001596209851982166583 4.29443797713516062 0.001596209851982166583 3.50182939531872783
0.002009509145210586212 5.16868831841071241 0.002009509145210586212 4.13645302815426330
0.002529822128153114136 6.19930564888756308 0.002529822128153114136 4.86478039589538191
0.003184857364431081805 7.40894425838053294 0.003184857364431081805 5.69647318055485385
0.004009497869020606231 8.82254270555343645 0.004009497869020606231 6.64178169665878215
0.005047658755856332391 10.46747190022563068 0.005047658755856332391 7.71168772798359381
0.006354625877790454069 12.37372225603957965 0.006354625877790454069 8.91809669418573669
0.007999999999995566213 14.57413960242426043 0.007999999999995566213 10.27406450845508168
0.010071403294347192059 17.10471587063275933 0.010071403294347192059 11.79406713311638910
0.012679145539706837553 20.00494782029068119 0.012679145539706837553 13.49438642508401820
0.015962098519764822413 23.31830354966758634 0.015962098519764822413 15.39370653148046131
0.020095091452077440408 27.09285322757156322 0.020095091452077440408 17.51380143201390638
0.025298221281346400247 31.38204847450814228 0.025298221281346400247 19.87968601438855032
0.031848573644282396344 36.24541741151564622 0.031848573644282396344 22.51818399593855702
0.040094978690177640601 41.74867741425971701 0.040094978690177640601 25.45416515791240997
0.050476587558421215363 47.96268807460837280 0.050476587558421215363 28.70487058141682013
0.063546258777947173257 54.96093906465301160 0.063546258777947173257 32.27455583467073552
0.079999999999998294697 62.81602196015741413 0.079999999999998294697 36.15217562929315420
0.100714032943528764008 71.59603399150239511 0.100714032943528764008 40.31259483001346666
0.126791455396883634421 81.36158474871146495 0.126791455396883634421 44.72320307353670188
0.159620985197506115583 92.16521440827095546 0.159620985197506115583 49.35499974945555834
0.200950914520774404082 104.05345926805240708 0.200950914520774404082 54.18409331904563686
0.252982212813464002465 117.06690417456883324 0.252982212813464002465 59.20298842437355091
0.318485736442795541734 131.24735342754641465 0.318485736442795541734 64.43646931005295642
0.400949786901833249431 146.64505885288937748 0.400949786901833249431 69.90492606965550237
0.504765875584169521062 163.30889336099662046 0.504765875584169521062 75.66777505895574052
0.635462587779429100010 181.31324083336863850 0.635462587779429100010 81.79310767408765059
0.800000000000011368684 200.73398709963888109 0.800000000000011368684 88.37602051391657199
1.007140329435344483500 221.68323052584801758 1.007140329435344483500 95.51488080594388919
1.267914553968893187630 244.27395973336160750 1.267914553968893187630 103.27843323072171700
1.596209851975103788391 268.63880766891486473 1.596209851975103788391 111.71863539459100423
2.009509145207672986544 294.89992489317825175 2.009509145207672986544 120.77713602101241008
2.529822128134725289783 323.14433048873121379 2.529822128134725289783 130.28356371023622273
3.184857364427998049905 353.39280186126950412 3.184857364427998049905 139.94587756493757524
4.009497869018190385759 385.57121340061740966 4.009497869018190385759 149.37835931309356852
5.009497869018204596614 418.34874569650645526 5.009497869018204596614 157.87684938575728211
6.009497869018190385759 446.15461956128393695 6.009497869018190385759 164.11876454238117162
7.009497869018190385759 470.23302044510791120 7.009497869018190385759 168.70145372460393673
8.009497869018204596614 491.38692172436759620 8.009497869018204596614 172.00870159650980895
9.009497869018190385759 510.18052929904348503 9.009497869018190385759 174.29690647606378207
10.009497869018190385759 527.03366388927861408 10.009497869018190385759 175.78117671816420398
11.009497869018204596614 542.25513313202884547 11.009497869018204596614 176.83213071029970820
12.009497869018190385759 556.08767550755453613 12.009497869018190385759 177.38216414312188363
13.009497869018190385759 568.72269987701042737 13.009497869018190385759 177.52766773802065359
14.009497869018204596614 580.31510282244516929 14.009497869018204596614 177.33996058442738786
15.009497869018190385759 590.99234719873948052 15.009497869018190385759 176.82785922957552316
16.009497869018190385759 600.86104778926835479 16.009497869018190385759 176.01026597513927641
17.009497869018190385759 610.00033552083880295 17.009497869018190385759 174.76452048596044619
18.009497869018204596614 618.48258201132114209 18.009497869018204596614 173.32302624445063088
19.009497869018190385759 626.36786525964316752 19.009497869018190385759 171.42908259132553894
20.009497869018190385759 633.70541253145711380 20.009497869018190385759 169.56521980761107216
21.009497869018204596614 640.53884315081916156 21.009497869018204596614 167.57533779729132561
22.009497869018190385759 646.91629365619814962 22.009497869018190385759 165.48958695343449676
23.009497869018190385759 652.88732541769320505 23.009497869018190385759 163.25661769167163584
24.009497869018204596614 658.48523208339088342 24.009497869018204596614 161.01695063083485593
25.009497869018190385759 663.74013628487512051 25.009497869018190385759 158.65612482262986305
26.009497869018190385759 668.67933135404643963 26.009497869018190385759 155.94132224496851791
27.009497869018204596614 673.32512385940003696 27.009497869018204596614 153.16614210387487560
28.009497869018190385759 677.68394511163580773 28.009497869018190385759 150.27844987673776700
29.009497869018190385759 681.76675455832207717 29.009497869018190385759 147.35219464341821549
30.009497869018190385759 685.59522864635641781 30.009497869018190385759 144.41974432206845336
31.009497869018190385759 689.17850953714651041 31.009497869018190385759 141.40769254902224361
32.009497869018190385759 692.54779720025612733 32.009497869018190385759 138.38337432393589665
33.009497869018190385759 695.72812267009271636 33.009497869018190385759 135.40973761549554411
34.009497869018190385759 698.73200987481754964 34.009497869018190385759 132.41138054494430776
35.009497869018190385759 701.56741708056506468 35.009497869018190385759 129.29273499420301619
36.009497869018190385759 704.24509381437121647 36.009497869018190385759 126.39091460798633193
37.009497869018190385759 706.77126436790331354 37.009497869018190385759 123.50908178561186901
38.009497869018190385759 709.15169651757798874 38.009497869018190385759 120.60208876952356150
39.009497869018190385759 711.39168672088464973 39.009497869018190385759 117.63613655135659997
40.009497869018190385759 713.50414179642473300 40.009497869018190385759 114.55303289374175790
41.009497869018190385759 715.49724288004188111 41.009497869018190385759 111.70359047344905434
42.009497869018190385759 717.37847303305636615 42.009497869018190385759 108.78092096966264535
43.009497869018190385759 719.15513985764550853 43.009497869018190385759 105.95487151753732746
44.009497869018190385759 720.83371070087946464 44.009497869018190385759 103.10692797501155837
46.009497869018190385759 723.91955239849846748 46.009497869018190385759 97.61330826937967231
48.009497869018190385759 726.67767149344410882 48.009497869018190385759 92.36205571042616214
50.009497869018218807469 729.14351065423966247 50.009497869018218807469 87.27827651729164415
52.009497869018190385759 731.35100888947613385 52.009497869018190385759 82.38804546339059698
54.009497869018190385759 733.32800455322444577 54.009497869018190385759 77.73088908125103558
56.009497869018190385759 735.10025846835571883 56.009497869018190385759 73.26673822980960438
58.009497869018190385759 736.68949563831972682 58.009497869018190385759 69.01471290691452509
60.009497869018190385759 738.11626288116860906 60.009497869018190385759 64.96946134433612485
62.009497869018190385759 739.39704596788146773 62.009497869018190385759 61.11549439910675119
64.009497869018190385759 740.54875906961967758 64.009497869018190385759 57.45198662648756027
66.009497869018218807469 741.58404008862191858 66.009497869018218807469 54.01251999564177453
68.009497869018190385759 742.51537190147655565 68.009497869018190385759 50.76111474926204181
70.009497869018190385759 743.35374033902269275 70.009497869018190385759 47.64255109743768912
72.009497869018190385759 744.10814444849881966 72.009497869018190385759 44.74039434913802182
74.009497869018218807469 744.78788681846731379 74.009497869018218807469 41.97496886891210721
76.009497869018190385759 745.40055773476137801 76.009497869018190385759 39.35984196371574484
78.009497869018190385759 745.95285917826936384 78.009497869018190385759 36.88231598707091763
80.009497869018218807469 746.45102313995198529 80.009497869018218807469 34.55694446165545486
82.009497869018190385759 746.90025899099828166 82.009497869018190385759 32.34788197902487639
84.009497869018190385759 747.30524028593049479 84.009497869018190385759 30.19359627725662776
86.009497869018218807469 747.67072038799517486 86.009497869018218807469 28.22095121561430275
88.009497869018190385759 748.00055091039132549 88.009497869018190385759 26.29826087980027083
91.009497869018190385759 748.43591289754999707 91.009497869018190385759 23.63815979897492170
94.009497869018190385759 748.80962620225363935 94.009497869018190385759 21.16392067670459554
97.009497869018190385759 749.12963362945004064 97.009497869018190385759 18.92837229919103237
99.504748934509137825444 749.36053770721650835 99.504748934509137825444 16.08702785183179174
nan nan nan nan

