Time Pressure difference Time.1 Pressure.1 difference.1
(hr) (psi) (hr) (psi)
0.000200000000006639311 0.16779336452450497 0.000200000000006639311 0.13449525424990852
0.000399999999999067768 0.31376660107492987 0.000399999999999067768 0.28669569001582557
0.000600000000019917934 0.44806059368433665 0.000600000000019917934 0.39357203440448962
0.000799999999998135536 0.57401197492710976 0.000799999999998135536 0.49276001545059722
0.001007140329448930061 0.69759876999046821 0.001007140329448930061 0.58883700004534345
0.001267914553963578328 0.84517862351156936 0.001267914553963578328 0.70154978314287841
0.001596209851982166583 1.02067017010806071 0.001596209851982166583 0.83228884050474694
0.002009509145210586212 1.22845550763015932 0.002009509145210586212 0.98312147907808434
0.002529822128153114136 1.47340499150089022 0.002529822128153114136 1.15622492644061858
0.003184857364431081805 1.76090292531529435 0.003184857364431081805 1.35389549952043375
0.004009497869020606231 2.09687652074790742 0.004009497869020606231 1.57856941705598297
0.005047658755856332391 2.48783109265717650 0.005047658755856332391 1.83285674797243225
0.006354625877790454069 2.94089454014352958 0.006354625877790454069 2.11958708412106756
0.007999999999995566213 3.46387341635527291 0.007999999999995566213 2.44186345812393935
0.010071403294347192059 4.06532201659023240 0.010071403294347192059 2.80312640935014779
0.012679145539706837553 4.75462763776139496 0.012679145539706837553 3.20724568880202021
0.015962098519764822413 5.54212145509850806 0.015962098519764822413 3.65866200600275304
0.020095091452077440408 6.43922842982716581 0.020095091452077440408 4.16255043896977561
0.025298221281346400247 7.45865254670262523 0.025298221281346400247 4.72485634069787075
0.031848573644282396344 8.61454200806239712 0.031848573644282396344 5.35195497339368043
0.040094978690177640601 9.92251603238322666 0.040094978690177640601 6.04975720222573088
0.050476587558421215363 11.39941600195326998 0.050476587558421215363 6.82236075948861309
0.063546258777947173257 13.06270839702305153 0.063546258777947173257 7.67077707707657552
0.079999999999998294697 14.92964624496838155 0.079999999999998294697 8.59238099276099732
0.100714032943528764008 17.01641439048528426 0.100714032943528764008 9.58119857399728225
0.126791455396883634421 19.33741807143931268 0.126791455396883634421 10.62947923148160179
0.159620985197506115583 21.90514464733067257 0.159620985197506115583 11.73033031520590797
0.200950914520774404082 24.73065452031620026 0.200950914520774404082 12.87807346142997744
0.252982212813464002465 27.82359359573085555 0.252982212813464002465 14.07092722906708815
0.318485736442795541734 31.19389760950560841 0.318485736442795541734 15.31478215357274131
0.400949786901833249431 34.85351004294511057 0.400949786901833249431 16.61448440117058567
0.504765875584169521062 38.81404664694299100 0.504765875584169521062 17.98415561065910495
0.635462587779429100010 43.09318643081048350 0.635462587779429100010 19.43997924009380895
0.800000000000011368684 47.70896537575243457 0.800000000000011368684 21.00455714384013106
1.007140329435344483500 52.68802619006841326 1.007140329435344483500 22.70126851502216780
1.267914553968893187630 58.05722317134137711 1.267914553968893187630 24.54645207949105767
1.596209851975103788391 63.84807953472236619 1.596209851975103788391 26.55245673579529964
2.009509145207672986544 70.08962711958180591 2.009509145207672986544 28.70541398527020505
2.529822128134725289783 76.80254797611856077 2.529822128134725289783 30.96483121712714848
3.184857364427998049905 83.99178032402953420 3.184857364427998049905 33.26129831671592996
4.009497869018190385759 91.63970653801656852 4.009497869018190385759 35.50314062569580642
5.009497869018204596614 99.43002733023476480 5.009497869018204596614 37.52299871988905977
6.009497869018190385759 106.03872121722822897 6.009497869018190385759 39.00653082318921605
7.009497869018190385759 111.76149696969527270 7.009497869018190385759 40.09571040200152225
8.009497869018204596614 116.78919934474613740 8.009497869018204596614 40.88175254907186229
9.009497869018190385759 121.25592461643931586 9.009497869018190385759 41.42559611511969564
10.009497869018190385759 125.26145266007510770 10.009497869018190385759 41.77836645865638587
11.009497869018204596614 128.87917858463410425 11.009497869018204596614 42.02814940944992372
12.009497869018190385759 132.16679467191383424 12.009497869018190385759 42.15887727661970530
13.009497869018190385759 135.16979356051234618 13.009497869018190385759 42.19345949197531809
14.009497869018204596614 137.92498992131092450 14.009497869018204596614 42.14884664777810741
15.009497869018190385759 140.46267818037105712 15.009497869018190385759 42.02713419558944707
16.009497869018190385759 142.80819774873145889 16.009497869018190385759 41.83281469428852262
17.009497869018190385759 144.98035587822695902 17.009497869018190385759 41.53673514508527376
18.009497869018204596614 146.99635331827255413 18.009497869018204596614 41.19413148413471504
19.009497869018190385759 148.87046896210455316 19.009497869018190385759 40.74399300247480937
20.009497869018190385759 150.61440278114511671 20.009497869018190385759 40.30100391877146393
21.009497869018204596614 152.23852189284752967 21.009497869018204596614 39.82806351986904048
22.009497869018190385759 153.75426703268615825 22.009497869018190385759 39.33233772759143676
23.009497869018190385759 155.17341757955034609 23.009497869018190385759 38.80162215354325639
24.009497869018204596614 156.50388652080590646 24.009497869018204596614 38.26931469628323157
25.009497869018190385759 157.75283318013302392 25.009497869018190385759 37.70821112648304307
26.009497869018190385759 158.92674443424576225 26.009497869018190385759 37.06297698327160361
27.009497869018204596614 160.03092194291460260 27.009497869018204596614 36.40339274855409002
28.009497869018190385759 161.06689425237101432 28.009497869018190385759 35.71706747563491291
29.009497869018190385759 162.03726612283591635 29.009497869018190385759 35.02157683339624583
30.009497869018190385759 162.94718945145157818 30.009497869018190385759 34.32461378857840373
31.009497869018190385759 163.79883707934152426 31.009497869018190385759 33.60873166105952947
32.009497869018190385759 164.59962438388728856 32.009497869018190385759 32.88993413418988609
33.009497869018190385759 165.35550055571235362 33.009497869018190385759 32.18318221433375470
34.009497869018190385759 166.06944218918246747 34.009497869018190385759 31.47055494214159665
35.009497869018190385759 166.74334074597257427 35.009497869018190385759 30.72933839605811457
36.009497869018190385759 167.37975109394821516 36.009497869018190385759 30.03965524706578805
37.009497869018190385759 167.98015257659241684 37.009497869018190385759 29.35472259401623418
38.009497869018190385759 168.54591603622907314 38.009497869018190385759 28.66381005271714244
39.009497869018190385759 169.07830029559485752 39.009497869018190385759 27.95888452551966452
40.009497869018190385759 169.58037295161574320 40.009497869018190385759 27.22611531300963250
41.009497869018190385759 170.05407843598629825 41.009497869018190385759 26.54888097051402696
42.009497869018190385759 170.50119526722542673 42.009497869018190385759 25.85424255787840053
43.009497869018190385759 170.92346026202423559 43.009497869018190385759 25.18256808257050494
44.009497869018190385759 171.32241053147131993 44.009497869018190385759 24.50568998222661321
46.009497869018190385759 172.05583050102379161 46.009497869018190385759 23.20000719222928964
48.009497869018190385759 172.71135979282055928 48.009497869018190385759 21.95192842821765922
50.009497869018218807469 173.29742215746722422 50.009497869018218807469 20.74365349178233231
52.009497869018190385759 173.82208396682813145 52.009497869018190385759 19.58137964169342737
54.009497869018190385759 174.29196163444484569 54.009497869018190385759 18.47450125106656671
56.009497869018190385759 174.71317780165060185 56.009497869018190385759 17.41349498361352133
58.009497869018190385759 175.09089590614897247 58.009497869018190385759 16.40290513862564126
60.009497869018190385759 175.42999936327578325 60.009497869018190385759 15.44145974751972616
62.009497869018190385759 175.73440638881601217 62.009497869018190385759 14.52547746566541065
64.009497869018190385759 176.00813701753290275 64.009497869018190385759 13.65476210747879726
66.009497869018218807469 176.25419493230560875 66.009497869018218807469 12.83729518634089573
68.009497869018190385759 176.47554697066649965 68.009497869018190385759 12.06452530036701276
70.009497869018190385759 176.67480416341663840 70.009497869018190385759 11.32332821941073142
72.009497869018190385759 176.85410533736509819 72.009497869018190385759 10.63356512637303908
74.009497869018218807469 177.01566146277181701 74.009497869018218807469 9.97629930710830237
76.009497869018190385759 177.16127654248273871 76.009497869018190385759 9.35475533851626651
78.009497869018190385759 177.29254345361232481 78.009497869018190385759 8.76591533814999124
80.009497869018218807469 177.41094336955464428 80.009497869018218807469 8.21323827934809003
82.009497869018190385759 177.51771441502029347 82.009497869018190385759 7.68820469126725303
84.009497869018190385759 177.61396736578822697 84.009497869018190385759 7.17619004222765966
86.009497869018218807469 177.70083196598307040 86.009497869018218807469 6.70734639345468153
88.009497869018190385759 177.77922363846582243 88.009497869018190385759 6.25037561344365411
91.009497869018190385759 177.88269724685363826 91.009497869018190385759 5.61814251632441408
94.009497869018190385759 177.97151865359279554 94.009497869018190385759 5.03008371112998809
97.009497869018190385759 178.04757564565824168 97.009497869018190385759 4.49875515197735520
99.504748934509137825444 178.10245521443707162 99.504748934509137825444 3.82344547563260573
nan nan nan nan

