Time Pressure difference Time.1 Pressure.1 difference.1
(hr) (psi) (hr) (psi)
0.000200000000006639311 0.53401456676471082 0.000200000000006639311 0.42804091290323576
0.000399999999999067768 0.99858499180278493 0.000399999999999067768 0.91242985162712953
0.000600000000019917934 1.42598537492068966 0.000600000000019917934 1.25257157837445443
0.000799999999998135536 1.82683479157300077 0.000799999999998135536 1.56824453050044821
0.001007140329448930061 2.22015874100700827 0.001007140329448930061 1.87401651051775264
0.001267914553963578328 2.68984234121731847 0.001267914553963578328 2.23273312726384932
0.001596209851982166583 3.24835693142274939 0.001596209851982166583 2.64881967081801184
0.002009509145210586212 3.90964885623374325 0.002009509145210586212 3.12885549565514776
0.002529822128153114136 4.68921837544059272 0.002529822128153114136 3.67976978663881482
0.003184857364431081805 5.60420142621091522 0.003184857364431081805 4.30887073913764596
0.004009497869020606231 6.67346179009811102 0.004009497869020606231 5.02391179619061745
0.005047658755856332391 7.91770310401682220 0.005047658755856332391 5.83319969167989871
0.006354625877790454069 9.35961042444019498 0.006354625877790454069 6.74573980714049259
0.007999999999995566213 11.02402867362860839 0.007999999999995566213 7.77140776921602150
0.010071403294347192059 12.93818251752990989 0.010071403294347192059 8.92115334428034501
0.012679145539706837553 15.13194771021987428 0.012679145539706837553 10.20729229589688636
0.015962098519764822413 17.63820396705624916 0.015962098519764822413 11.64395750458137613
0.020095091452077440408 20.49331205675284906 0.020095091452077440408 13.24761903190795742
0.025298221281346400247 23.73770333328180016 0.025298221281346400247 15.03719839549903270
0.031848573644282396344 27.41640547794132132 0.031848573644282396344 17.03298533026121575
0.040094978690177640601 31.57912778770927176 0.040094978690177640601 19.25379159380554128
0.050476587558421215363 36.27946918463965886 0.050476587558421215363 21.71265851671272529
0.063546258777947173257 41.57301801044265943 0.063546258777947173257 24.41280505443043225
0.079999999999998294697 47.51468327755497256 0.079999999999998294697 27.34587643754226249
0.100714032943528764008 54.15597442946976514 0.100714032943528764008 30.49286019193326425
0.126791455396883634421 61.54273718171764074 0.126791455396883634421 33.82908950434186579
0.159620985197506115583 69.71471346266649505 0.159620985197506115583 37.33262801561382815
0.200950914520774404082 78.70710380532169381 0.200950914520774404082 40.98540392081657302
0.252982212813464002465 88.55060700384052552 0.252982212813464002465 44.78174765433384152
0.318485736442795541734 99.27684425929793122 0.318485736442795541734 48.74040627298877126
0.400949786901833249431 110.92382656821121145 0.400949786901833249431 52.87680305268812475
0.504765875584169521062 123.52852190126668575 0.504765875584169521062 57.23588113433831381
0.635462587779429100010 137.14719498934292119 0.635462587779429100010 61.86914554834834945
0.800000000000011368684 151.83724665229095763 0.800000000000011368684 66.84852833744970724
1.007140329435344483500 167.68346924391067887 1.007140329435344483500 72.24843548141909366
1.267914553968893187630 184.77132851626072352 1.267914553968893187630 78.12086616169976594
1.596209851975103788391 203.20114939058944969 1.596209851975103788391 84.50512164462652720
2.009509145207672986544 223.06532780381431280 2.009509145207672986544 91.35706442615041567
2.529822128134725289783 244.42968588250181483 2.529822128134725289783 98.54782383210176988
3.184857364427998049905 267.30993986942178253 3.184857364427998049905 105.85649713245277326
4.009497869018190385759 291.65002039277470658 4.009497869018190385759 112.99132307016050447
5.009497869018204596614 316.44328200120355632 5.009497869018204596614 119.41966812512410456
6.009497869018190385759 337.47593018097114737 6.009497869018190385759 124.14111676923704408
7.009497869018190385759 355.68907956745346155 7.009497869018190385759 127.60750986861067702
8.009497869018204596614 371.69010745817547559 8.009497869018204596614 130.10914607941126064
9.009497869018190385759 385.90578498260975948 9.009497869018190385759 131.83996771907391121
10.009497869018190385759 398.65366883932614428 10.009497869018190385759 132.96268495348317629
11.009497869018204596614 410.16734429217569868 11.009497869018204596614 133.75763733214975559
12.009497869018190385759 420.63042121725283096 12.009497869018190385759 134.17368826210503130
13.009497869018190385759 430.18768324030270378 13.009497869018190385759 134.28374867363100975
14.009497869018204596614 438.95629572467004209 14.009497869018204596614 134.14176505745149370
15.009497869018190385759 447.03267288109788069 15.009497869018190385759 133.75440634031994591
16.009497869018190385759 454.49745922521583452 16.009497869018190385759 133.13597041709252267
17.009497869018190385759 461.41051020166008811 17.009497869018190385759 132.19367575220087474
18.009497869018204596614 467.82656844446080413 18.009497869018204596614 131.10331472336650904
19.009497869018190385759 473.79107756819166752 19.009497869018190385759 129.67071631907958817
20.009497869018190385759 479.34127358148680287 20.009497869018190385759 128.26087139293656492
21.009497869018204596614 484.51015058844012628 21.009497869018204596614 126.75570423128444020
22.009497869018190385759 489.33411956045750912 22.009497869018190385759 125.17802090067480947
23.009497869018190385759 493.85066922620387686 23.009497869018190385759 123.48898004882856583
24.009497869018204596614 498.08498324256487422 24.009497869018204596614 121.79487291306739394
25.009497869018190385759 502.05984667702091429 25.009497869018190385759 120.00912005814312522
26.009497869018190385759 505.79590448575305572 26.009497869018190385759 117.95561554427104056
27.009497869018204596614 509.31002958595644259 27.009497869018204596614 115.85644082216177253
28.009497869018190385759 512.60708668700658563 28.009497869018190385759 113.67216080419906632
29.009497869018190385759 515.69536562744883668 29.009497869018190385759 111.45871133284198606
30.009497869018190385759 518.59126269403884635 30.009497869018190385759 109.24057583335948607
31.009497869018190385759 521.30169311143140476 31.009497869018190385759 106.96222897938861252
32.009497869018190385759 523.85025685660400541 32.009497869018190385759 104.67460365528482669
33.009497869018190385759 526.25588766071120972 33.009497869018190385759 102.42531435018253205
34.009497869018190385759 528.52805875146452763 34.009497869018190385759 100.15732630963735517
35.009497869018190385759 530.67278984299150579 35.009497869018190385759 97.79835082894842913
36.009497869018190385759 532.69821198779368387 36.009497869018190385759 95.60338412655376317
37.009497869018190385759 534.60903330392682165 37.009497869018190385759 93.42353622245001077
38.009497869018190385759 536.40961659662946204 38.009497869018190385759 91.22465688976782872
39.009497869018190385759 538.10396816066906922 39.009497869018190385759 88.98118021192358640
40.009497869018190385759 539.70185084601359904 40.009497869018190385759 86.64908898372775070
41.009497869018190385759 541.20945294772400302 41.009497869018190385759 84.49374151196788318
42.009497869018190385759 542.63243473013233142 42.009497869018190385759 82.28300432320635593
43.009497869018190385759 543.97632373847534382 43.009497869018190385759 80.14535153249617849
44.009497869018190385759 545.24601194040872087 44.009497869018190385759 77.99113782725233079
46.009497869018190385759 547.58017425014622859 46.009497869018190385759 73.83570753709487633
48.009497869018190385759 549.66644382196420793 48.009497869018190385759 69.86360624250184514
50.009497869018218807469 551.53162985384790318 50.009497869018218807469 66.01818351948983832
52.009497869018190385759 553.20140415998832850 52.009497869018190385759 62.31916259410314041
54.009497869018190385759 554.69682395692609589 54.009497869018190385759 58.79644174094629250
56.009497869018190385759 556.03737499529461275 56.009497869018190385759 55.41971225075341323
58.009497869018190385759 557.23949029052391779 58.009497869018190385759 52.20343668599944920
60.009497869018190385759 558.31871166652490501 60.009497869018190385759 49.14356691430552360
62.009497869018190385759 559.28750912955138119 62.009497869018190385759 46.22838678906792609
64.009497869018190385759 560.15867673214825118 64.009497869018190385759 43.45727193542007427
66.009497869018218807469 560.94177391318839909 66.009497869018218807469 40.85562409926749439
68.009497869018190385759 561.64624284855278802 68.009497869018190385759 38.39622782315974803
70.009497869018190385759 562.28039333336334948 70.009497869018190385759 36.03731429165158318
72.009497869018190385759 562.85103233924905908 72.009497869018190385759 33.84209316152747249
74.009497869018218807469 563.36519643960980375 74.009497869018218807469 31.75029696494633669
76.009497869018190385759 563.82862700449913973 76.009497869018190385759 29.77218815204140157
78.009497869018190385759 564.24639348099856306 78.009497869018190385759 27.89816209278441406
80.009497869018218807469 564.62320981098935135 80.009497869018218807469 26.13922722099579232
82.009497869018190385759 564.96301641626791934 82.009497869018190385759 24.46826970208291741
84.009497869018190385759 565.26934842140894943 84.009497869018190385759 22.83874590202744770
86.009497869018218807469 565.54580131912462093 86.009497869018218807469 21.34661694514415231
88.009497869018190385759 565.79528850914221039 88.009497869018190385759 19.89227425523353787
91.009497869018190385759 566.12460078148012599 91.009497869018190385759 17.88014651460923687
94.009497869018190385759 566.40728135811491484 94.009497869018190385759 16.00860666571245261
97.009497869018190385759 566.64933825817365687 97.009497869018190385759 14.31761494425987991
99.504748934509137825444 566.82399647084321259 99.504748934509137825444 12.16839286228302264
nan nan nan nan

