Time Pressure difference Time.1 Pressure.1 difference.1
(hr) (psi) (hr) (psi)
0.000200000000006639311 0.59110608498466688 0.000200000000006639311 0.47380278364386852
0.000399999999999067768 1.10534375233450377 0.000399999999999067768 1.00997776275284612
0.000600000000019917934 1.57843752712863838 0.000600000000019917934 1.38648405481083681
0.000799999999998135536 2.02214177059384292 0.000799999999998135536 1.73590561459567239
0.001007140329448930061 2.45751599884608884 0.001007140329448930061 2.07436768895641688
0.001267914553963578328 2.97741349112581899 0.001267914553963578328 2.47143471322947628
0.001596209851982166583 3.59563889801553360 0.001596209851982166583 2.93200508542958538
0.002009509145210586212 4.32762956837346557 0.002009509145210586212 3.46336155907590726
0.002529822128153114136 5.19054289537035629 0.002529822128153114136 4.07317411845678468
0.003184857364431081805 6.20334681988665881 0.003184857364431081805 4.76953227839356142
0.004009497869020606231 7.38692185109947363 0.004009497869020606231 5.56101840282377413
0.005047658755856332391 8.76418505255577962 0.005047658755856332391 6.45682729887383822
0.006354625877790454069 10.36024674100355369 0.006354625877790454069 7.46692711377089768
0.007999999999995566213 12.20260801031380460 0.007999999999995566213 8.60224927778931381
0.010071403294347192059 14.32140411653571377 0.010071403294347192059 9.87491419725425423
0.012679145539706837553 16.74970483178184466 0.012679145539706837553 11.29855431449342440
0.015962098519764822413 19.52390504306487173 0.015962098519764822413 12.88881345683127400
0.020095091452077440408 22.68425285030399863 0.020095091452077440408 14.66392250076904169
0.025298221281346400247 26.27550212510592686 0.025298221281346400247 16.64482586411822496
0.031848573644282396344 30.34749445993766059 0.031848573644282396344 18.85398245813790297
0.040094978690177640601 34.95525357466124206 0.040094978690177640601 21.31221520618110077
0.050476587558421215363 40.15810865418392694 0.050476587558421215363 24.03395968799100402
0.063546258777947173257 46.01759099200236847 0.063546258777947173257 27.02277899766810165
0.079999999999998294697 52.59447992522056126 0.079999999999998294697 30.26942515707089854
0.100714032943528764008 59.94579177395023351 0.100714032943528764008 33.75285306773317018
0.126791455396883634421 68.12227362096255945 0.126791455396883634421 37.44575878642274347
0.159620985197506115583 77.16791620574166188 0.159620985197506115583 41.32386073697018958
0.200950914520774404082 87.12168335165334554 0.200950914520774404082 45.36715505707075380
0.252982212813464002465 98.01755586213899107 0.252982212813464002465 49.56936604762638154
0.318485736442795541734 109.89053556211727880 0.318485736442795541734 53.95124501403842032
0.400949786901833249431 122.78269720522986574 0.400949786901833249431 58.52986413524409670
0.504765875584169521062 136.73496100935517461 0.504765875584169521062 63.35497142510198643
0.635462587779429100010 151.80960696995066428 0.635462587779429100010 68.48357831883669178
0.800000000000011368684 168.07017263076272684 0.800000000000011368684 73.99530711668161587
1.007140329435344483500 185.61051549945261741 1.007140329435344483500 79.97251854462164999
1.267914553968893187630 204.52523847497437259 1.267914553968893187630 86.47277101862202642
1.596209851975103788391 224.92539221983108177 1.596209851975103788391 93.53956750493863126
2.009509145207672986544 246.91325072416995567 2.009509145207672986544 101.12405175723819184
2.529822128134725289783 270.56167316068325590 2.529822128134725289783 109.08357553253506467
3.184857364427998049905 295.88805599627005449 3.184857364427998049905 117.17361938129386090
4.009497869018190385759 322.83033548039855987 4.009497869018190385759 125.07122983906945990
5.009497869018204596614 350.27424565713408811 5.009497869018204596614 132.18682951529382308
6.009497869018190385759 373.55549507645963558 6.009497869018190385759 137.41304841862091735
7.009497869018190385759 393.71581297622941520 7.009497869018190385759 141.25003373983111032
8.009497869018204596614 411.42751138460363336 8.009497869018204596614 144.01911997577596480
9.009497869018190385759 427.16298754919910152 9.009497869018190385759 145.93498382463329222
10.009497869018190385759 441.27374816765046717 10.009497869018190385759 147.17773080248662154
11.009497869018204596614 454.01835111350345642 11.009497869018204596614 148.05767157104975240
12.009497869018190385759 465.60003600188741757 12.009497869018190385759 148.51820252219971508
13.009497869018190385759 476.17906528163888424 13.009497869018190385759 148.64002949662676656
14.009497869018204596614 485.88513046968040499 14.009497869018204596614 148.48286640648802859
15.009497869018190385759 494.82495342379672820 15.009497869018190385759 148.05409515375700380
16.009497869018190385759 503.08780036793774570 16.009497869018190385759 147.36954222178820828
17.009497869018190385759 510.73992589466678282 17.009497869018190385759 146.32650679741658450
18.009497869018204596614 517.84192517515930376 18.009497869018204596614 145.11957522834180168
19.009497869018190385759 524.44410020260067995 19.009497869018190385759 143.53381767261871005
20.009497869018190385759 530.58766788876437204 20.009497869018190385759 141.97324617027788918
21.009497869018204596614 536.30914973870358153 21.009497869018204596614 140.30716152850129674
22.009497869018190385759 541.64884942220135144 22.009497869018190385759 138.56080801130758573
23.009497869018190385759 546.64826358937034456 23.009497869018190385759 136.69119173592625316
24.009497869018204596614 551.33526828283913801 24.009497869018204596614 134.81596754001853355
25.009497869018190385759 555.73508452254338863 25.009497869018190385759 132.83929977752740115
26.009497869018190385759 559.87056441773711413 26.009497869018190385759 130.56625501575766179
27.009497869018204596614 563.76038476985274883 27.009497869018204596614 128.24265744200175732
28.009497869018190385759 567.40993037453517900 28.009497869018190385759 125.82485596188398347
29.009497869018190385759 570.82837733729343199 29.009497869018190385759 123.37476652096852092
30.009497869018190385759 574.03387487254099142 30.009497869018190385759 120.91949006847745807
31.009497869018190385759 577.03407751187125996 31.009497869018190385759 118.39756506323459462
32.009497869018190385759 579.85510830672330940 32.009497869018190385759 115.86536962625400804
33.009497869018190385759 582.51792519419007021 33.009497869018190385759 113.37560871356579639
34.009497869018190385759 585.03301418512830878 34.009497869018190385759 110.86514998289715095
35.009497869018190385759 587.40703856153822926 35.009497869018190385759 108.25397634130015945
36.009497869018190385759 589.64899866706241482 36.009497869018190385759 105.82434566289980182
37.009497869018190385759 591.76410596484208781 37.009497869018190385759 103.41145013410698539
38.009497869018190385759 593.75718968779449369 38.009497869018190385759 100.97748852596204472
39.009497869018190385759 595.63268444381753852 39.009497869018190385759 98.49416166873939460
40.009497869018190385759 597.40139682955077660 40.009497869018190385759 95.91274647612107174
41.009497869018190385759 599.07017673092263976 41.009497869018190385759 93.52697072185232230
42.009497869018190385759 600.64528955134596799 42.009497869018190385759 91.07988353377079704
43.009497869018190385759 602.13285378613511512 43.009497869018190385759 88.71369419959485469
44.009497869018190385759 603.53828440339896133 44.009497869018190385759 86.32917342286471296
46.009497869018190385759 606.12199209696757407 46.009497869018190385759 81.72948591785339545
48.009497869018190385759 608.43130483030972755 48.009497869018190385759 77.33272711849291170
50.009497869018218807469 610.49589797381599965 50.009497869018218807469 73.07619010175601204
52.009497869018190385759 612.34418791633652290 52.009497869018190385759 68.98170670455485265
54.009497869018190385759 613.99948310225590831 54.009497869018190385759 65.08237162720131153
56.009497869018190385759 615.48335250456989343 56.009497869018190385759 61.34463585513643835
58.009497869018190385759 616.81398599303099672 58.009497869018190385759 57.78450814395505830
60.009497869018190385759 618.00858696855232211 60.009497869018190385759 54.39750757528734226
62.009497869018190385759 619.08095860624393936 62.009497869018190385759 51.17066542883789282
64.009497869018190385759 620.04526277130878498 64.009497869018190385759 48.10329057779875228
66.009497869018218807469 620.91208090260352037 66.009497869018218807469 45.22350046972373150
68.009497869018190385759 621.69186463940184240 68.009497869018190385759 42.50117004154188294
70.009497869018190385759 622.39381217734739948 70.009497869018190385759 39.89006497211498470
72.009497869018190385759 623.02545822167201095 72.009497869018190385759 37.46015266510669051
74.009497869018218807469 623.59459162611312877 74.009497869018218807469 35.14472245533173123
76.009497869018190385759 624.10756757082106105 76.009497869018190385759 32.95513395186851113
78.009497869018190385759 624.56999747766337805 78.009497869018190385759 30.88075569331677173
80.009497869018218807469 624.98709925623199979 80.009497869018218807469 28.93377302558725717
82.009497869018190385759 625.36323459897198518 82.009497869018190385759 27.08417337297053251
84.009497869018190385759 625.70231657076419651 84.009497869018190385759 25.28043711971486829
86.009497869018218807469 626.00832505858761579 86.009497869018218807469 23.62878459768889527
88.009497869018190385759 626.28448493384848916 88.009497869018190385759 22.01895807391560922
91.009497869018190385759 626.64900399410259979 91.009497869018190385759 19.79171367783994739
94.009497869018190385759 626.96190596224187175 94.009497869018190385759 17.72008743049527268
97.009497869018190385759 627.22984117495377632 97.009497869018190385759 15.84831171796171922
99.504748934509137825444 627.42317210397129656 99.504748934509137825444 13.46931621913727106
nan nan nan nan

