Time Pressure difference Time.1 Pressure.1 difference.1
(hr) (psi) (hr) (psi)
0.000200000000006639311 0.41983153032479875 0.000200000000006639311 0.33651717142197024
0.000399999999999067768 0.78506747073934724 0.000399999999999067768 0.71733402937569635
0.000600000000019917934 1.12108107050479266 0.000600000000019917934 0.98474662550168968
0.000799999999998135536 1.43622083353131602 0.000799999999998135536 1.23292236231000030
0.001007140329448930061 1.74544422532884758 0.001007140329448930061 1.47331415364042351
0.001267914553963578328 2.11470004140031698 0.001267914553963578328 1.75532995533259628
0.001596209851982166583 2.55379299823718098 0.001596209851982166583 2.08244884159486476
0.002009509145210586212 3.07368743195429905 0.002009509145210586212 2.45984336881363008
0.002529822128153114136 3.68656933558106603 0.002529822128153114136 2.89296112300287511
0.003184857364431081805 4.40591063885942891 0.003184857364431081805 3.38754766062581547
0.004009497869020606231 5.24654166809538669 0.004009497869020606231 3.94969858292430587
0.005047658755856332391 6.22473920693891003 0.005047658755856332391 4.58594447729201882
0.006354625877790454069 7.35833779131347931 0.006354625877790454069 5.30336519387968330
0.007999999999995566213 8.66687000025821419 0.007999999999995566213 6.10972475206944132
0.010071403294347192059 10.17173931951829857 0.010071403294347192059 7.01363163833252745
0.012679145539706837553 11.89643346709593885 0.012679145539706837553 8.02476825870381028
0.015962098519764822413 13.86680181503900755 0.015962098519764822413 9.15424560008157862
0.020095091452077440408 16.11143046965054637 0.020095091452077440408 10.41501209418578711
0.025298221281346400247 18.66210574963353963 0.025298221281346400247 11.82194345826064819
0.031848573644282396344 21.55422751394865344 0.031848573644282396344 13.39099107450783954
0.040094978690177640601 24.82687621380533471 0.040094978690177640601 15.13694436905442053
0.050476587558421215363 28.52219024555112981 0.050476587558421215363 17.07005617415615362
0.063546258777947173257 32.68387204732324136 0.063546258777947173257 19.19285716795508279
0.079999999999998294697 37.35508998222379518 0.079999999999998294697 21.49877899848498686
0.100714032943528764008 42.57633974050882131 0.100714032943528764008 23.97287444033345238
0.126791455396883634421 48.38366430322782463 0.126791455396883634421 26.59575094018011043
0.159620985197506115583 54.80830797651616138 0.159620985197506115583 29.35016257290109110
0.200950914520774404082 61.87794471265839036 0.200950914520774404082 32.22190164830819725
0.252982212813464002465 69.61670928724359442 0.252982212813464002465 35.20651086774877569
0.318485736442795541734 78.04946165365926447 0.318485736442795541734 38.31872879088947315
0.400949786901833249431 87.20608529417387444 0.400949786901833249431 41.57068088757619506
0.504765875584169521062 97.11564368508970801 0.504765875584169521062 44.99770055281095438
0.635462587779429100010 107.82237102812749185 0.635462587779429100010 48.64028000737165058
0.800000000000011368684 119.37139469534737657 0.800000000000011368684 52.55497077898588998
1.007140329435344483500 131.82937673282677338 1.007140329435344483500 56.80026935501396679
1.267914553968893187630 145.26350859883339695 1.267914553968893187630 61.41705644785523077
1.596209851975103788391 159.75266373210618553 1.596209851975103788391 66.43622992400234750
2.009509145207672986544 175.36948196310305548 2.009509145207672986544 71.82308976397483491
2.529822128134725289783 192.16571132613898953 2.529822128134725289783 77.47632043123515189
3.184857364427998049905 210.15370761572535230 3.184857364427998049905 83.22225263477056956
4.009497869018190385759 229.28939021752691474 4.009497869018190385759 88.83150953234260783
5.009497869018204596614 248.78135468934260643 5.009497869018204596614 93.88534534478466753
6.009497869018190385759 265.31680038999428461 6.009497869018190385759 97.59725347046926913
7.009497869018190385759 279.63561274990149741 7.009497869018190385759 100.32246212616978198
8.009497869018204596614 292.21529960531916004 8.009497869018204596614 102.28919828668186653
9.009497869018190385759 303.39137984943113224 9.009497869018190385759 103.64993550795510657
10.009497869018190385759 313.41351018267749851 10.009497869018190385759 104.53259325547635683
11.009497869018204596614 322.46533064952012637 11.009497869018204596614 105.15756885434983303
12.009497869018190385759 330.69119164798365773 12.009497869018190385759 105.48465974191569217
13.009497869018190385759 338.20491915763039970 13.009497869018190385759 105.57118702763949614
14.009497869018204596614 345.09862623464931630 14.009497869018204596614 105.45956235937842393
15.009497869018190385759 351.44811179570018567 15.009497869018190385759 105.15502871344578750
16.009497869018190385759 357.31677693977206900 16.009497869018190385759 104.66882680770116565
17.009497869018190385759 362.75167881564669869 17.009497869018190385759 103.92801366176938416
18.009497869018204596614 367.79585498306374802 18.009497869018204596614 103.07079371341590956
19.009497869018190385759 372.48503229937364267 19.009497869018190385759 101.94451361200128758
20.009497869018190385759 376.84848496693155084 20.009497869018190385759 100.83612183825391639
21.009497869018204596614 380.91215228791315894 21.009497869018204596614 99.65278963685074132
22.009497869018190385759 384.70465983696988133 22.009497869018190385759 98.41244667940928537
23.009497869018190385759 388.25548049987082777 23.009497869018190385759 97.08455667463314853
24.009497869018204596614 391.58441316201646032 24.009497869018204596614 95.75268365916510049
25.009497869018190385759 394.70937098597602244 25.009497869018190385759 94.34876061937458758
26.009497869018190385759 397.64658462178499576 26.009497869018190385759 92.73433660129782652
27.009497869018204596614 400.40931921816394379 27.009497869018204596614 91.08400758248181717
28.009497869018190385759 403.00139931194905785 28.009497869018190385759 89.36677048882926044
29.009497869018190385759 405.42934220775958920 29.009497869018190385759 87.62660095658893056
30.009497869018190385759 407.70603833703438568 30.009497869018190385759 85.88274736312355628
31.009497869018190385759 409.83692431055169436 31.009497869018190385759 84.09155681169666252
32.009497869018190385759 411.84055395636534058 32.009497869018190385759 82.29307171334649240
33.009497869018190385759 413.73181259375337504 33.009497869018190385759 80.52472562341598916
34.009497869018190385759 415.51814788413702217 34.009497869018190385759 78.74167896311776360
35.009497869018190385759 417.20429240589822939 35.009497869018190385759 76.88709980424498269
36.009497869018190385759 418.79663862925633566 36.009497869018190385759 75.16146105386170007
37.009497869018190385759 420.29888798209634615 37.009497869018190385759 73.44770839913604732
38.009497869018190385759 421.71447041429928504 38.009497869018190385759 71.71899361737939671
39.009497869018190385759 423.04653559437218746 39.009497869018190385759 69.95521729829194157
40.009497869018190385759 424.30275887893895970 40.009497869018190385759 68.12177399894110863
41.009497869018190385759 425.48800538132667270 41.009497869018190385759 66.42728309219899074
42.009497869018190385759 426.60672508770505829 42.009497869018190385759 64.68924590207748793
43.009497869018190385759 427.66326364315602859 43.009497869018190385759 63.00866619829881898
44.009497869018190385759 428.66146701442823996 44.009497869018190385759 61.31506663602758067
46.009497869018190385759 430.49653855650353762 46.009497869018190385759 58.04815077557784520
48.009497869018190385759 432.13672180527294131 48.009497869018190385759 54.92536449051969782
50.009497869018218807469 433.60309361391176708 50.009497869018218807469 51.90217035495745534
52.009497869018190385759 434.91583664729199654 52.009497869018190385759 48.99407437319973724
54.009497869018190385759 436.09150566626658474 54.009497869018190385759 46.22458196843626865
56.009497869018190385759 437.14541997674410823 56.009497869018190385759 43.56986504198736299
58.009497869018190385759 438.09049888550964624 58.009497869018190385759 41.04129377008822388
60.009497869018190385759 438.93896106247007083 60.009497869018190385759 38.63568559234189337
62.009497869018190385759 439.70061017616615118 62.009497869018190385759 36.34382950952797842
64.009497869018190385759 440.38550465382706989 64.009497869018190385759 34.16523465066271825
66.009497869018218807469 441.00115993435798600 66.009497869018218807469 32.11987135835501306
68.009497869018190385759 441.55499926685439505 68.009497869018190385759 30.18634338639547110
70.009497869018190385759 442.05355564539513580 70.009497869018190385759 28.33181293072477658
72.009497869018190385759 442.50218057440309849 72.009497869018190385759 26.60597415436905777
74.009497869018218807469 442.90640606660332423 74.009497869018218807469 24.96144598417554050
76.009497869018190385759 443.27074587185518340 76.009497869018190385759 23.40629655238717532
78.009497869018190385759 443.59918548766904678 78.009497869018190385759 21.93297489171968806
80.009497869018218807469 443.89543092050394080 80.009497869018218807469 20.55013561181285553
82.009497869018190385759 444.16258005085995819 82.009497869018190385759 19.23646236030769430
84.009497869018190385759 444.40341212269828475 84.009497869018190385759 17.95536346665261007
86.009497869018218807469 444.62075384019834701 86.009497869018218807469 16.78228164005465928
88.009497869018190385759 444.81689565972976652 88.009497869018190385759 15.63890661786939162
91.009497869018190385759 445.07579435623534891 91.009497869018190385759 14.05701218814780873
94.009497869018190385759 445.29803214986083049 94.009497869018190385759 12.58564513614681601
97.009497869018190385759 445.48833242461375903 97.009497869018190385759 11.25622139685620482
99.504748934509137825444 445.62564520458732886 99.504748934509137825444 9.56654614857452756
nan nan nan nan

