Time Pressure difference Time.1 Pressure.1 difference.1
(hr) (psi) (hr) (psi)
0.000200000000006639311 0.11348679841283946 0.000200000000006639311 0.09096566988686758
0.000399999999999067768 0.21221558495939238 0.000399999999999067768 0.19390621357916835
0.000600000000019917934 0.30304513182799536 0.000600000000019917934 0.26619187389183319
0.000799999999998135536 0.38823216561460122 0.000799999999998135536 0.33327752082343298
0.001007140329448930061 0.47181991497280623 0.001007140329448930061 0.39825904982319904
0.001267914553963578328 0.57163533457421500 0.001267914553963578328 0.47449217698045304
0.001596209851982166583 0.69032878725150992 0.001596209851982166583 0.56291734855715247
0.002009509145210586212 0.83086409852164311 0.002009509145210586212 0.66493278460467953
0.002529822128153114136 0.99653532620184693 0.002529822128153114136 0.78201104983328140
0.003184857364431081805 1.19098413620909938 0.003184857364431081805 0.91570525486236809
0.004009497869020606231 1.41821938955148918 0.004009497869020606231 1.06766313269761492
0.005047658755856332391 1.68264094648597395 0.005047658755856332391 1.23964999966600176
0.006354625877790454069 1.98906975121740803 0.006354625877790454069 1.43357964610678024
0.007999999999995566213 2.34278575463032990 0.007999999999995566213 1.65155080362739470
0.010071403294347192059 2.74957464192617351 0.010071403294347192059 1.89589047603350247
0.012679145539706837553 3.21578549773903477 0.012679145539706837553 2.16921596379555748
0.015962098519764822413 3.74840579743177127 0.015962098519764822413 2.47453073435040993
0.020095091452077440408 4.35516279693704611 0.020095091452077440408 2.81533494419947461
0.025298221281346400247 5.04464881789430653 0.025298221281346400247 3.19564972420644366
0.031848573644282396344 5.82643297640734747 0.031848573644282396344 3.61978697370609925
0.040094978690177640601 6.71107930820940179 0.040094978690177640601 4.09174449777092963
0.050476587558421215363 7.70997845775262736 0.050476587558421215363 4.61429379168731923
0.063546258777947173257 8.83494385358820544 0.063546258777947173257 5.18811893594805795
0.079999999999998294697 10.09764455572550368 0.079999999999998294697 5.81144440589229294
0.100714032943528764008 11.50902716036971540 0.100714032943528764008 6.48022974091932458
0.126791455396883634421 13.07883462923073736 0.126791455396883634421 7.18923284120954964
0.159620985197506115583 14.81551276977136666 0.159620985197506115583 7.93379187294009647
0.200950914520774404082 16.72654226892755602 0.200950914520774404082 8.71006628304185249
0.252982212813464002465 18.81844712076402004 0.252982212813464002465 9.51685119642296762
0.318485736442795541734 21.09794734584819409 0.318485736442795541734 10.35813066818405304
0.400949786901833249431 23.57312090041515873 0.400949786901833249431 11.23718239581247147
0.504765875584169521062 26.25182408071247764 0.504765875584169521062 12.16355752920097189
0.635462587779429100010 29.14601405901290576 0.635462587779429100010 13.14820172670245313
0.800000000000011368684 32.26788944501098655 0.800000000000011368684 14.20640171969270327
1.007140329435344483500 35.63546999577241081 1.007140329435344483500 15.35396999148802166
1.267914553968893187630 39.26691857646740402 1.267914553968893187630 16.60195721558938686
1.596209851975103788391 43.18355586788276668 1.596209851975103788391 17.95871555159598998
2.009509145207672986544 47.40501751241425410 2.009509145207672986544 19.41486506057694328
2.529822128134725289783 51.94529178467769981 2.529822128134725289783 20.94301862403205661
3.184857364427998049905 56.80771864239342506 3.184857364427998049905 22.49623081172073213
4.009497869018190385759 61.98038243027676231 4.009497869018190385759 24.01249760161168467
5.009497869018204596614 67.24935458434966051 5.009497869018204596614 25.37862569021542214
6.009497869018190385759 71.71913509712946677 6.009497869018190385759 26.38201047377527431
7.009497869018190385759 75.58972616622544649 7.009497869018190385759 27.11867550010891748
8.009497869018204596614 78.99020536594863984 8.009497869018204596614 27.65031396472494762
9.009497869018190385759 82.01126851651289940 9.009497869018190385759 28.01814177080710166
10.009497869018190385759 84.72040159166904516 10.009497869018190385759 28.25673748033606358
11.009497869018204596614 87.16724526678569873 11.009497869018204596614 28.42567781634995328
12.009497869018190385759 89.39081963287118526 12.009497869018190385759 28.51409541945647774
13.009497869018190385759 91.42189356997306504 13.009497869018190385759 28.53748505058911888
14.009497869018204596614 93.28536662727667306 14.009497869018204596614 28.50731121820676961
15.009497869018190385759 95.00172839585260931 15.009497869018190385759 28.42499117792979391
16.009497869018190385759 96.58811714955696459 16.009497869018190385759 28.29356346543165657
17.009497869018190385759 98.05725314585474450 17.009497869018190385759 28.09331049231908395
18.009497869018204596614 99.42077008663247284 18.009497869018204596614 27.86159100379235909
19.009497869018190385759 100.68832548059353371 19.009497869018190385759 27.55714049544976518
20.009497869018190385759 101.86783258641766281 20.009497869018190385759 27.25752547203215315
21.009497869018204596614 102.96630318893836886 21.009497869018204596614 26.93765292007740086
22.009497869018190385759 103.99147521297858532 22.009497869018190385759 26.60236950040416559
23.009497869018190385759 104.95131562434319505 23.009497869018190385759 26.24342079264544125
24.009497869018204596614 105.85117636054506818 24.009497869018204596614 25.88339541698824675
25.009497869018190385759 106.69589961975803760 25.009497869018190385759 25.50389383243458852
26.009497869018190385759 107.48987279162679442 26.009497869018190385759 25.06749065673556842
27.009497869018204596614 108.23668164603766684 27.009497869018204596614 24.62138181748679244
28.009497869018190385759 108.93736001301441263 28.009497869018190385759 24.15718671588585309
29.009497869018190385759 109.59366961834959397 29.009497869018190385759 23.68679263005638091
30.009497869018190385759 110.20909494019338126 30.009497869018190385759 23.21540268688082875
31.009497869018190385759 110.78510557648411350 31.009497869018190385759 22.73121684959627586
32.009497869018190385759 111.32671690694451172 32.009497869018190385759 22.24505918619482259
33.009497869018190385759 111.83795265801292373 33.009497869018190385759 21.76704855160333096
34.009497869018190385759 112.32082604496574163 34.009497869018190385759 21.28506413099203343
35.009497869018190385759 112.77661635515987371 35.009497869018190385759 20.78374339650403257
36.009497869018190385759 113.20705156976579531 36.009497869018190385759 20.31727720029760675
37.009497869018190385759 113.61313224059983895 37.009497869018190385759 19.85402399512301130
38.009497869018190385759 113.99578553487693000 38.009497869018190385759 19.38672630121532592
39.009497869018190385759 114.35586285552680863 39.009497869018190385759 18.90995094464608073
40.009497869018190385759 114.69543896727536492 40.009497869018190385759 18.41434355195257311
41.009497869018190385759 115.01582898367537666 41.009497869018190385759 17.95629708794102086
42.009497869018190385759 115.31823580314416233 42.009497869018190385759 17.48647940636588771
43.009497869018190385759 115.60383411912842178 43.009497869018190385759 17.03219335045225336
44.009497869018190385759 115.87366355448061483 44.009497869018190385759 16.57438783030264773
46.009497869018190385759 116.36971108575468747 46.009497869018190385759 15.69129117150777653
48.009497869018190385759 116.81307737024791038 48.009497869018190385759 14.84715491203102999
50.009497869018218807469 117.20945979944879412 50.009497869018218807469 14.02993991352912850
52.009497869018190385759 117.56431405225306719 52.009497869018190385759 13.24383768297107267
54.009497869018190385759 117.88211513035066957 54.009497869018190385759 12.49520209097033430
56.009497869018190385759 118.16700407331556733 56.009497869018190385759 11.77759204285893979
58.009497869018190385759 118.42247316473977037 58.009497869018190385759 11.09408106886298562
60.009497869018190385759 118.65182529549356616 60.009497869018190385759 10.44380887487848852
62.009497869018190385759 118.85771054513281797 62.009497869018190385759 9.82428558881104586
64.009497869018190385759 119.04284785833137050 64.009497869018190385759 9.23537852082590938
66.009497869018218807469 119.20926877164238533 66.009497869018218807469 8.68248595590691252
68.009497869018190385759 119.35897990132214375 68.009497869018190385759 8.15982416580839498
70.009497869018190385759 119.49374721426104884 70.009497869018190385759 7.65851659653091055
72.009497869018190385759 119.61501730286518352 72.009497869018190385759 7.19199633028549989
74.009497869018218807469 119.72428555365893033 74.009497869018218807469 6.74745554796121638
76.009497869018190385759 119.82277210134725465 76.009497869018190385759 6.32707518746121078
78.009497869018190385759 119.91155428605314626 78.009497869018190385759 5.92881410837530520
80.009497869018218807469 119.99163389725065088 80.009497869018218807469 5.55501178229767145
82.009497869018190385759 120.06384833878966845 82.009497869018190385759 5.19990607749610945
84.009497869018190385759 120.12894888225508794 84.009497869018190385759 4.85360571320791934
86.009497869018218807469 120.18769962844497456 86.009497869018218807469 4.53650399225358125
88.009497869018190385759 120.24071972228185246 88.009497869018190385759 4.22743246884363266
91.009497869018190385759 120.31070394704207160 91.009497869018190385759 3.79982253178788199
94.009497869018190385759 120.37077817649637268 94.009497869018190385759 3.40208981292194190
97.009497869018190385759 120.42221921262363082 97.009497869018190385759 3.04272651357804502
99.504748934509137825444 120.45933692926656988 99.504748934509137825444 2.58598179472246770
nan nan nan nan

