Time Pressure difference Time.1 Pressure.1 difference.1
(hr) (psi) (hr) (psi)
0.000200000000006639311 0.53262209071056565 0.000200000000006639311 0.42692476971443988
0.000399999999999067768 0.99598111959469426 0.000399999999999067768 0.91005063428259980
0.000600000000019917934 1.42226702974488606 0.000600000000019917934 1.24930542041259152
0.000799999999998135536 1.82207120671883382 0.000799999999998135536 1.56415523576641835
0.001007140329448930061 2.21436953959629923 0.001007140329448930061 1.86912989640949245
0.001267914553963578328 2.68282841073174527 0.001267914553963578328 2.22691113736224899
0.001596209851982166583 3.23988663955463263 0.001596209851982166583 2.64191270948602241
0.002009509145210586212 3.89945420471814064 0.002009509145210586212 3.12069681118147102
0.002529822128153114136 4.67699094812523253 0.002529822128153114136 3.67017455903349887
0.003184857364431081805 5.58958812392614135 0.003184857364431081805 4.29763509183872117
0.004009497869020606231 6.65606032519563939 0.004009497869020606231 5.01081163505322369
0.005047658755856332391 7.89705720283294532 0.005047658755856332391 5.81798926223614377
0.006354625877790454069 9.33520466062157617 0.006354625877790454069 6.72814987283243404
0.007999999999995566213 10.99528283614847979 0.007999999999995566213 7.75114334217764878
0.010071403294347192059 12.90444540535903606 0.010071403294347192059 8.89789088445171217
0.012679145539706837553 15.09249021945007208 0.012679145539706837553 10.18067614910184737
0.015962098519764822413 17.59221125788531026 0.015962098519764822413 11.61359516428259653
0.020095091452077440408 20.43987447642233235 0.020095091452077440408 13.21307504486256512
0.025298221281346400247 23.67580580177389393 0.025298221281346400247 14.99798796943514922
0.031848573644282396344 27.34491550277068228 0.031848573644282396344 16.98857076616666362
0.040094978690177640601 31.49678325632019593 0.040094978690177640601 19.20358613984516083
0.050476587558421215363 36.18486822196785369 0.050476587558421215363 21.65604141497422930
0.063546258777947173257 41.46461379138022352 0.063546258777947173257 24.34914715337585278
0.079999999999998294697 47.39078579834361449 0.079999999999998294697 27.27457037121229533
0.100714032943528764008 54.01475937228731539 0.100714032943528764008 30.41334817057229145
0.126791455396883634421 61.38226068319947615 0.126791455396883634421 33.74087805843745258
0.159620985197506115583 69.53292802990856103 0.159620985197506115583 37.23528087606854342
0.200950914520774404082 78.50187015785019184 0.200950914520774404082 40.87853194188354422
0.252982212813464002465 88.31970581217470340 0.252982212813464002465 44.66497647400963444
0.318485736442795541734 99.01797373971697880 0.318485736442795541734 48.61331264515828821
0.400949786901833249431 110.63458582096684779 0.400949786901833249431 52.73892351408920121
0.504765875584169521062 123.20641363033770688 0.504765875584169521062 57.08663502968553871
0.635462587779429100010 136.78957518493785983 0.635462587779429100010 61.70781791979985798
0.800000000000011368684 151.44132162842575440 0.800000000000011368684 66.67421665990747215
1.007140329435344483500 167.24622421328768951 1.007140329435344483500 72.06004321158488324
1.267914553968893187630 184.28952583434087842 1.267914553968893187630 77.91716116518946933
1.596209851975103788391 202.67128980938841210 1.596209851975103788391 84.28476930657014066
2.009509145207672986544 222.48367114722026372 2.009509145207672986544 91.11884522295314071
2.529822128134725289783 243.79232033913154964 2.529822128134725289783 98.29085427843266132
3.184857364427998049905 266.61291264681574376 3.184857364427998049905 105.58046976052982302
4.009497869018190385759 290.88952490283264751 4.009497869018190385759 112.69669119774809474
5.009497869018204596614 315.61813654618089231 5.009497869018204596614 119.10827394487607478
6.009497869018190385759 336.59594079327632699 6.009497869018190385759 123.81741111925204279
7.009497869018190385759 354.76159826480034098 7.009497869018190385759 127.27476538394675742
8.009497869018204596614 370.72090248436012416 8.009497869018204596614 129.76987842340238899
9.009497869018190385759 384.89951174927836064 9.009497869018190385759 131.49618683845051237
10.009497869018190385759 397.61415470936702832 10.009497869018190385759 132.61597651814165033
11.009497869018204596614 409.09780754043600837 11.009497869018204596614 133.40885600924977439
12.009497869018190385759 419.53360134445682661 12.009497869018190385759 133.82382206063928720
13.009497869018190385759 429.06594221490428254 13.009497869018190385759 133.93359548282620608
14.009497869018204596614 437.81168999918196505 14.009497869018204596614 133.79198209771888628
15.009497869018190385759 445.86700750200765242 15.009497869018190385759 133.40563344243122401
16.009497869018190385759 453.31232895344214739 16.009497869018190385759 132.78881012917312887
17.009497869018190385759 460.20735372134282670 17.009497869018190385759 131.84897255597607568
18.009497869018204596614 466.60668169493158075 18.009497869018204596614 130.76145471105002116
19.009497869018190385759 472.55563799174262840 19.009497869018190385759 129.33259189582250315
20.009497869018190385759 478.09136152521170970 20.009497869018190385759 127.92642322763556706
21.009497869018204596614 483.24676036526290090 21.009497869018204596614 126.42518088257186548
22.009497869018190385759 488.05815053943939574 22.009497869018190385759 124.85161145895204982
23.009497869018190385759 492.56292302222414037 23.009497869018190385759 123.16697488572862085
24.009497869018204596614 496.78619580255815436 24.009497869018204596614 121.47728523923932187
25.009497869018190385759 500.75069453444717738 25.009497869018190385759 119.69618884547520565
26.009497869018190385759 504.47701034107058149 26.009497869018190385759 117.64803897179575642
27.009497869018204596614 507.98197214244680708 27.009497869018204596614 115.55433797777543248
28.009497869018190385759 511.27043196292049743 28.009497869018190385759 113.37575360523115364
29.009497869018190385759 514.35065802476958652 29.009497869018190385759 111.16807584044865109
30.009497869018190385759 517.23900386041680122 30.009497869018190385759 108.95572426664928400
31.009497869018190385759 519.94236666264009727 31.009497869018190385759 106.68331834319725715
32.009497869018190385759 522.48428487001569920 32.009497869018190385759 104.40165814379778908
33.009497869018190385759 524.88364284282147310 33.009497869018190385759 102.15823399985610820
34.009497869018190385759 527.14988910674094313 34.009497869018190385759 99.89615987858223889
35.009497869018190385759 529.28902767912450145 35.009497869018190385759 97.54333557254960851
36.009497869018190385759 531.30916841025054964 36.009497869018190385759 95.35409238176484337
37.009497869018190385759 533.21500714146554856 37.009497869018190385759 93.17992856606812779
38.009497869018190385759 535.01089530172305331 38.009497869018190385759 90.98678294742163075
39.009497869018190385759 536.70082873912895138 39.009497869018190385759 88.74915627395246531
40.009497869018190385759 538.29454484641507861 40.009497869018190385759 86.42314611805961988
41.009497869018190385759 539.79821578228018097 41.009497869018190385759 84.27341884831216134
42.009497869018190385759 541.21748705156619508 42.009497869018190385759 82.06844629368039534
43.009497869018190385759 542.55787178609341481 43.009497869018190385759 79.93636756500596618
44.009497869018190385759 543.82424919740901714 44.009497869018190385759 77.78777110540812600
46.009497869018190385759 546.15232503437005107 46.009497869018190385759 73.64317635707637066
48.009497869018190385759 548.23315452907763756 48.009497869018190385759 69.68143256259962470
50.009497869018218807469 550.09347697287319079 50.009497869018218807469 65.84603701748334004
52.009497869018190385759 551.75889723910188422 52.009497869018190385759 62.15666151823846519
54.009497869018190385759 553.25041763630838432 54.009497869018190385759 58.64312637786689919
56.009497869018190385759 554.58747310482453940 56.009497869018190385759 55.27520191893919588
58.009497869018190385759 555.78645380997488701 58.009497869018190385759 52.06731299190296625
60.009497869018190385759 556.86286104940234054 60.009497869018190385759 49.01542202013524019
62.009497869018190385759 557.82913231304667079 62.009497869018190385759 46.10784340761012601
64.009497869018190385759 558.69802829216871487 64.009497869018190385759 43.34395440755718454
66.009497869018218807469 559.47908349881231516 66.009497869018218807469 40.74909052925636388
68.009497869018190385759 560.18171548780037483 68.009497869018190385759 38.29610728124799124
70.009497869018190385759 560.81421238594907663 70.009497869018190385759 35.94334476285978752
72.009497869018190385759 561.38336341528747653 72.009497869018190385759 33.75384780778163929
74.009497869018218807469 561.89618680091462011 74.009497869018218807469 31.66750609932718064
76.009497869018190385759 562.35840894190585004 76.009497869018190385759 29.69455532765537242
78.009497869018190385759 562.77508606644573774 78.009497869018190385759 27.82541590740557425
80.009497869018218807469 563.15091982451997410 80.009497869018218807469 26.07106756722526697
82.009497869018190385759 563.48984036303124867 82.009497869018190385759 24.40446717352468298
84.009497869018190385759 563.79537358849790962 84.009497869018190385759 22.77919245769360757
86.009497869018218807469 564.07110561816205063 86.009497869018218807469 21.29095431947232697
88.009497869018190385759 564.31994225488108441 88.009497869018190385759 19.84040391819251070
91.009497869018190385759 564.64839582507465821 91.009497869018190385759 17.83352292526214811
94.009497869018190385759 564.93033929459954834 94.009497869018190385759 15.96686323242506411
97.009497869018190385759 565.17176501630103758 97.009497869018190385759 14.28028087660861623
99.504748934509137825444 565.34596779686455648 99.504748934509137825444 12.13666302431096966
nan nan nan nan

