Time Pressure difference Time.1 Pressure.1 difference.1
(hr) (psi) (hr) (psi)
0.000200000000006639311 0.51591237806082235 0.000200000000006639311 0.41353105144888880
0.000399999999999067768 0.96473465309760575 0.000399999999999067768 0.88150002614824385
0.000600000000019917934 1.37764688763524257 0.000600000000019917934 1.21011152487023566
0.000799999999998135536 1.76490818846883113 0.000799999999998135536 1.51508369895806028
0.001007140329448930061 2.14489912266778759 0.001007140329448930061 1.81049052711037106
0.001267914553963578328 2.59866124490486694 0.001267914553963578328 2.15704725854304113
0.001596209851982166583 3.13824313713723235 0.001596209851982166583 2.55902917350214754
0.002009509145210586212 3.77711838653090481 0.002009509145210586212 3.02279259749734619
0.002529822128153114136 4.53026182034091196 0.002529822128153114136 3.55503182776970261
0.003184857364431081805 5.41422849650885052 0.003184857364431081805 4.16280732425162459
0.004009497869020606231 6.44724274636597183 0.004009497869020606231 4.85360970140449499
0.005047658755856332391 7.64930638862642098 0.005047658755856332391 5.63546410891108884
0.006354625877790454069 9.04233549479815579 0.006354625877790454069 6.51707066113573052
0.007999999999995566213 10.65033278638695968 0.007999999999995566213 7.50797021771717432
0.010071403294347192059 12.49960005930855722 0.010071403294347192059 8.61874136650813050
0.012679145539706837553 14.61900033021242074 0.012679145539706837553 9.86128238756139908
0.015962098519764822413 17.04029874783400444 0.015962098519764822413 11.24924708069726265
0.020095091452077440408 19.79862351245613894 0.020095091452077440408 12.79854720031785575
0.025298221281346400247 22.93303542367902637 0.025298221281346400247 14.52746285666855641
0.031848573644282396344 26.48703580072297470 0.031848573644282396344 16.45559599703202025
0.040094978690177640601 30.50864887965133221 0.040094978690177640601 18.60112069232060605
0.050476587558421215363 35.04965666990611339 0.050476587558421215363 20.97663619411229163
0.063546258777947173257 40.16376316263104940 0.063546258777947173257 23.58525234072092402
0.079999999999998294697 45.90401604780734601 0.079999999999998294697 26.41889757525269289
0.100714032943528764008 52.32017868609790412 0.100714032943528764008 29.45920391424061080
0.126791455396883634421 59.45654270098145133 0.126791455396883634421 32.68234070758450827
0.159620985197506115583 67.35150283681339545 0.159620985197506115583 36.06711520152521899
0.200950914520774404082 76.03906638819213981 0.200950914520774404082 39.59606819468719863
0.252982212813464002465 85.54889151218490895 0.252982212813464002465 43.26372231011913527
0.318485736442795541734 95.91152750474546451 0.318485736442795541734 47.08818911119254125
0.400949786901833249431 107.16369685403455492 0.400949786901833249431 51.08436905090209024
0.504765875584169521062 119.34111437918984677 0.504765875584169521062 55.29568177385226591
0.635462587779429100010 132.49813753207706668 0.635462587779429100010 59.77188637721789632
0.800000000000011368684 146.69022134204377039 0.800000000000011368684 64.58247652940056582
1.007140329435344483500 161.99928384581201612 1.007140329435344483500 69.79933597357438657
1.267914553968893187630 178.50789365130270880 1.267914553968893187630 75.47270120706586738
1.596209851975103788391 196.31297483497624512 1.596209851975103788391 81.64054124989343109
2.009509145207672986544 215.50379126809178842 2.009509145207672986544 88.26021478458599745
2.529822128134725289783 236.14393381868822530 2.529822128134725289783 95.20721963440340119
3.184857364427998049905 258.24858597554310791 3.184857364427998049905 102.26814129745437754
4.009497869018190385759 281.76357902352810925 4.009497869018190385759 109.16110872879913529
5.009497869018204596614 305.71639108590852629 5.009497869018204596614 115.37154378189954684
6.009497869018190385759 326.03606814093819821 6.009497869018190385759 119.93294331943239683
7.009497869018190385759 343.63182263296351948 7.009497869018190385759 123.28183156797979336
8.009497869018204596614 359.09044279857630499 8.009497869018204596614 125.69866655129563071
9.009497869018190385759 372.82423294930100610 9.009497869018190385759 127.37081627096971204
10.009497869018190385759 385.13998514985746624 10.009497869018190385759 128.45547529404308307
11.009497869018204596614 396.26336651955955404 11.009497869018204596614 129.22348013444977255
12.009497869018190385759 406.37176287090522919 12.009497869018190385759 129.62542764305061382
13.009497869018190385759 415.60504991012294340 13.009497869018190385759 129.73175719316895993
14.009497869018204596614 424.07642129332532477 14.009497869018204596614 129.59458658092771088
15.009497869018190385759 431.87902295292508370 15.009497869018190385759 129.22035866776673174
16.009497869018190385759 439.09076569215773134 16.009497869018190385759 128.62288667414023280
17.009497869018190385759 445.76947595753603082 17.009497869018190385759 127.71253420127878542
18.009497869018204596614 451.96804070058078651 18.009497869018204596614 126.65913456325236552
19.009497869018190385759 457.73036307435467052 19.009497869018190385759 125.27509881673788072
20.009497869018190385759 463.09241684991093280 20.009497869018190385759 123.91304524402347909
21.009497869018204596614 468.08607768713704900 21.009497869018204596614 122.45890069802057099
22.009497869018190385759 472.74652228722169411 22.009497869018190385759 120.93469815827906189
23.009497869018190385759 477.10996857446809827 23.009497869018190385759 119.30291292852928109
24.009497869018204596614 481.20074652247791391 24.009497869018204596614 117.66623315330240018
25.009497869018190385759 485.04086882356256183 25.009497869018190385759 115.94101429346029875
26.009497869018190385759 488.65028060488015171 26.009497869018190385759 113.95712010209237519
27.009497869018204596614 492.04528282033072628 27.009497869018204596614 111.92910384513935185
28.009497869018190385759 495.23057527388766630 28.009497869018190385759 109.81886721761605941
29.009497869018190385759 498.21416679262000571 29.009497869018190385759 107.68044993172868828
30.009497869018190385759 501.01189785695277124 30.009497869018190385759 105.53750546612695871
31.009497869018190385759 503.63044927714554433 31.009497869018190385759 103.33639070890086487
32.009497869018190385759 506.09262103095642260 32.009497869018190385759 101.12631200595315306
33.009497869018190385759 508.41670502814469046 33.009497869018190385759 98.95326979593906458
34.009497869018190385759 510.61185337005889551 34.009497869018190385759 96.76216270592082935
35.009497869018190385759 512.68388171272067666 35.009497869018190385759 94.48315249576374697
36.009497869018190385759 514.64064547973282515 36.009497869018190385759 92.36259144429770629
37.009497869018190385759 516.48669319192936200 37.009497869018190385759 90.25663668948558893
38.009497869018190385759 518.22623976284546643 38.009497869018190385759 88.13229563926722676
39.009497869018190385759 519.86315568064640047 39.009497869018190385759 85.96486901829905491
40.009497869018190385759 521.40687285123340189 40.009497869018190385759 83.71183173004206424
41.009497869018190385759 522.86336979695374794 41.009497869018190385759 81.62954688444354190
42.009497869018190385759 524.23811490877187680 42.009497869018190385759 79.49374993936885403
43.009497869018190385759 525.53644835751015307 43.009497869018190385759 77.42855995512341849
44.009497869018190385759 526.76309628141177654 44.009497869018190385759 75.34737044327768274
46.009497869018190385759 529.01813444505660300 46.009497869018190385759 71.33280219685435952
48.009497869018190385759 531.03368301443993005 48.009497869018190385759 67.49534840377296518
50.009497869018218807469 532.83564240117516420 50.009497869018218807469 63.78027899340543172
52.009497869018190385759 534.44881418846330234 52.009497869018190385759 60.20664860786236261
54.009497869018190385759 535.89354178889470859 54.009497869018190385759 56.80334202091421503
56.009497869018190385759 537.18865041918297720 56.009497869018190385759 53.54107793716855213
58.009497869018190385759 538.35001604338742709 58.009497869018190385759 50.43382866274522769
60.009497869018190385759 539.39265364393088475 60.009497869018190385759 47.47768329009178245
62.009497869018190385759 540.32861051499025962 62.009497869018190385759 44.66132283011646820
64.009497869018190385759 541.17024701241439288 64.009497869018190385759 41.98414407320245090
66.009497869018218807469 541.92679852630055848 66.009497869018218807469 39.47068768912283332
68.009497869018190385759 542.60738715877130289 68.009497869018190385759 37.09466077830687425
70.009497869018190385759 543.22004101697814349 70.009497869018190385759 34.81571041735831074
72.009497869018190385759 543.77133632774905436 72.009497869018190385759 32.69490356283163379
74.009497869018218807469 544.26807113657218906 74.009497869018218807469 30.67401571189730802
76.009497869018190385759 544.71579219078728329 76.009497869018190385759 28.76296143502304758
78.009497869018190385759 545.11939709181217495 78.009497869018190385759 26.95246168285951782
80.009497869018218807469 545.48343998688801548 80.009497869018218807469 25.25315172197898406
82.009497869018190385759 545.81172772419108696 82.009497869018190385759 23.63883683082586984
84.009497869018190385759 546.10767559356463607 84.009497869018190385759 22.06455112568753307
86.009497869018218807469 546.37475720661188916 86.009497869018218807469 20.62300281141045133
88.009497869018190385759 546.61578720374757268 88.009497869018190385759 19.21795987370019887
91.009497869018190385759 546.93393634820961324 91.009497869018190385759 17.27403985309706158
94.009497869018190385759 547.20703453241605985 94.009497869018190385759 15.46594203297643766
97.009497869018190385759 547.44088611382892395 97.009497869018190385759 13.83227206479344495
99.504748934509137825444 547.60962370911977359 99.504748934509137825444 11.75590496864630907
nan nan nan nan

