Time Pressure difference Time.1 Pressure.1 difference.1
(hr) (psi) (hr) (psi)
0.000200000000006639311 0.65794493558363987 0.000200000000006639311 0.52737765670607273
0.000399999999999067768 1.23032961832285759 0.000399999999999067768 1.12418019529027036
0.000600000000019917934 1.75691809556721235 0.000600000000019917934 1.54325963698026003
0.000799999999998135536 2.25079384359385326 0.000799999999998135536 1.93219176182910513
0.001007140329448930061 2.73539766656013450 0.001007140329448930061 2.30892516615290244
0.001267914553963578328 3.31408215443333232 0.001267914553963578328 2.75089022850630771
0.001596209851982166583 4.00221290768513427 0.001596209851982166583 3.26353922936508667
0.002009509145210586212 4.81697284112240887 0.002009509145210586212 3.85497841381240525
0.002529822128153114136 5.77745940650764034 0.002529822128153114136 4.53374504351196883
0.003184857364431081805 6.90478532955582214 0.003184857364431081805 5.30884334874194952
0.004009497869020606231 8.22219216641814121 0.004009497869020606231 6.18982613741868715
0.005047658755856332391 9.75518830938187520 0.005047658755856332391 7.18692791217406057
0.006354625877790454069 11.53172340429724230 0.006354625877790454069 8.31124396055771264
0.007999999999995566213 13.58240820935988857 0.007999999999995566213 9.57494177563121340
0.010071403294347192059 15.94078550073763090 0.010071403294347192059 10.99151226902858802
0.012679145539706837553 18.64366438873243936 0.012679145539706837553 12.57612936065522469
0.015962098519764822413 21.73155508327008789 0.015962098519764822413 14.34620579117262196
0.020095091452077440408 25.24925670616876161 0.020095091452077440408 16.32203387894787383
0.025298221281346400247 29.24658363748539713 0.025298221281346400247 18.52692631518459621
0.031848573644282396344 33.77901326812849447 0.031848573644282396344 20.98588153467646578
0.040094978690177640601 38.90779108133671826 0.040094978690177640601 23.72207699627931632
0.050476587558421215363 44.69895486243087390 0.050476587558421215363 26.75158057143875112
0.063546258777947173257 51.22099350699910048 0.063546258777947173257 30.07835824828781668
0.079999999999998294697 58.54155892736564226 0.079999999999998294697 33.69211634090930829
0.100714032943528764008 66.72411451870786436 0.100714032943528764008 37.56943009305989278
0.126791455396883634421 75.82514554983464450 0.126791455396883634421 41.67990818983450652
0.159620985197506115583 85.89361697812235263 0.159620985197506115583 45.99652343514350150
0.200950914520774404082 96.97289843028552525 0.200950914520774404082 50.49701004585614328
0.252982212813464002465 109.10081306209816887 0.252982212813464002465 55.17438270318837823
0.318485736442795541734 122.31632050200332174 0.318485736442795541734 60.05173914990141526
0.400949786901833249431 136.66625307295905145 0.400949786901833249431 65.14808198799254058
0.504765875584169521062 152.19615801394658661 0.504765875584169521062 70.51878444843508476
0.635462587779429100010 168.97535758139383688 0.635462587779429100010 76.22730448916452417
0.800000000000011368684 187.07457377629066286 0.800000000000011368684 82.36226763870922696
1.007140329435344483500 206.59827696935539620 1.007140329435344483500 89.01534749666367929
1.267914553968893187630 227.65176720712693736 1.267914553968893187630 96.25061085111639159
1.596209851975103788391 250.35865211747980652 1.596209851975103788391 104.11647973164546954
2.009509145207672986544 274.83277024068382843 2.009509145207672986544 112.55857351070683592
2.529822128134725289783 301.15521924245661012 2.529822128134725289783 121.41811410865209098
3.184857364427998049905 329.34536268136065473 3.184857364427998049905 130.42293323359564283
4.009497869018190385759 359.33411899761676978 4.009497869018190385759 139.21355971486528347
5.009497869018204596614 389.88122749822349533 5.009497869018204596614 147.13375016719984956
6.009497869018190385759 415.79498568581192330 6.009497869018190385759 152.95091961789958646
7.009497869018190385759 438.23491550357692859 7.009497869018190385759 157.22176900369890973
8.009497869018204596614 457.94935012773902372 8.009497869018204596614 160.30396746420294107
9.009497869018190385759 475.46410274910851967 9.009497869018190385759 162.43646609455649354
10.009497869018190385759 491.17042640568860179 10.009497869018190385759 163.81973569888086217
11.009497869018204596614 505.35611519700916006 11.009497869018204596614 164.79917507024973133
12.009497869018190385759 518.24738989609375039 12.009497869018190385759 165.31178019255443701
13.009497869018190385759 530.02263450076407025 13.009497869018190385759 165.44738265525592169
14.009497869018204596614 540.82620529310713664 14.009497869018204596614 165.27244847365275859
15.009497869018190385759 550.77689162012711677 15.009497869018190385759 164.79519425241505814
16.009497869018190385759 559.97405341307569415 16.009497869018190385759 164.03323604191973573
17.009497869018190385759 568.49143694989413689 17.009497869018190385759 162.87226021620574556
18.009497869018204596614 576.39648915256259443 18.009497869018204596614 161.52885581953236738
19.009497869018190385759 583.74519987215273886 19.009497869018190385759 159.76378998895725658
20.009497869018190385759 590.58344658996736598 20.009497869018190385759 158.02675810472626949
21.009497869018204596614 596.95188045120721654 21.009497869018204596614 156.17228226670638946
22.009497869018190385759 602.89536243107227165 22.009497869018190385759 154.22846121399959429
23.009497869018190385759 608.46008138039451296 23.009497869018190385759 152.14743956472358377
24.009497869018204596614 613.67706540316009978 24.009497869018204596614 150.06017588376622030
25.009497869018190385759 618.57438736608185081 25.009497869018190385759 147.85999798558700036
26.009497869018190385759 623.17748336249894692 26.009497869018190385759 145.32993049457124357
27.009497869018204596614 627.50714205831661729 27.009497869018204596614 142.74359397254610826
28.009497869018190385759 631.56935713066650351 28.009497869018190385759 140.05240151234437462
29.009497869018190385759 635.37434226589186892 29.009497869018190385759 137.32527015584832952
30.009497869018190385759 638.94229888639722503 30.009497869018190385759 134.59236527056677346
31.009497869018190385759 642.28174705384958543 31.009497869018190385759 131.78527560042013533
32.009497869018190385759 645.42176366296064316 32.009497869018190385759 128.96675417763256632
33.009497869018190385759 648.38567645289708707 33.009497869018190385759 126.19546552923401350
34.009497869018190385759 651.18515713185649929 34.009497869018190385759 123.40113867354276067
35.009497869018190385759 653.82762242715386947 35.009497869018190385759 120.49470864844363405
36.009497869018190385759 656.32309038913297172 36.009497869018190385759 117.79034941276833592
37.009497869018190385759 658.67736176298683404 37.009497869018190385759 115.10461764043709820
38.009497869018190385759 660.89581184330484120 38.009497869018190385759 112.39543775857966068
39.009497869018190385759 662.98337667774751480 39.009497869018190385759 109.63131069135305040
40.009497869018190385759 664.95208481027736980 40.009497869018190385759 106.75800402819129431
41.009497869018190385759 666.80956067222837191 41.009497869018190385759 104.10245857732677166
42.009497869018190385759 668.56277812252290005 42.009497869018190385759 101.37866895101696230
43.009497869018190385759 670.21854750046838944 43.009497869018190385759 98.74492463912501705
44.009497869018190385759 671.78289606738758266 44.009497869018190385759 96.09077607138651445
46.009497869018190385759 674.65875445422193479 46.009497869018190385759 90.97098255874139738
48.009497869018190385759 677.22919088886067129 48.009497869018190385759 86.07706375379953556
50.009497869018218807469 679.52723626060799234 50.009497869018218807469 81.33922219806764531
52.009497869018190385759 681.58452011889039568 52.009497869018190385759 76.78175834605929140
54.009497869018190385759 683.42698649191027016 54.009497869018190385759 72.44150905501204818
56.009497869018190385759 685.07864324713625592 56.009497869018190385759 68.28113178221900625
58.009497869018190385759 686.55973705938083640 58.009497869018190385759 64.31844546058601964
60.009497869018190385759 687.88941659043814525 60.009497869018190385759 60.54846249546117321
62.009497869018190385759 689.08304579846935667 62.009497869018190385759 56.95674773881250275
64.009497869018190385759 690.15638789032607292 64.009497869018190385759 53.54253191521769395
66.009497869018218807469 691.12122079265066077 66.009497869018218807469 50.33711183025786084
68.009497869018190385759 691.98917795551801646 68.009497869018190385759 47.30695605330633668
70.009497869018190385759 692.77049765323113206 70.009497869018190385759 44.40060235412092027
72.009497869018190385759 693.47356657182569961 72.009497869018190385759 41.69592964490673381
74.009497869018218807469 694.10705428348285295 74.009497869018218807469 39.11868400505122167
76.009497869018190385759 694.67803457529544175 76.009497869018190385759 36.68150952239781049
78.009497869018190385759 695.19275337619774291 78.009497869018190385759 34.37257259150100452
80.009497869018218807469 695.65701860675994794 80.009497869018218807469 32.20543640657238882
82.009497869018190385759 696.07568515433274570 82.009497869018190385759 30.14669474376578862
84.009497869018190385759 696.45310855049740439 84.009497869018190385759 28.13900244773916270
86.009497869018218807469 696.79371870478848905 86.009497869018218807469 26.30059062993640850
88.009497869018190385759 697.10110513838253610 88.009497869018190385759 24.50873425188486365
91.009497869018190385759 697.50684190156289333 91.009497869018190385759 22.02964596650029705
94.009497869018190385759 697.85512501097593940 94.009497869018190385759 19.72377222828978560
97.009497869018190385759 698.15335678484245818 97.009497869018190385759 17.64034696522240608
99.504748934509137825444 698.36854845495031441 99.504748934509137825444 14.99234844179590098
nan nan nan nan

