Time Pressure difference Time.1 Pressure.1 difference.1
(hr) (psi) (hr) (psi)
0.000200000000006639311 0.55490170757688984 0.000200000000006639311 0.44478306073517460
0.000399999999999067768 1.03764307492414565 0.000399999999999067768 0.94811811179507466
0.000600000000019917934 1.48176055255774397 0.000600000000019917934 1.30156394780239926
0.000799999999998135536 1.89828856438550408 0.000799999999998135536 1.62958395151089608
0.001007140329448930061 2.30699676216764793 0.001007140329448930061 1.94731572214165416
0.001267914553963578328 2.79505129850091638 0.001267914553963578328 2.32006297578785947
0.001596209851982166583 3.37541130944449952 0.001596209851982166583 2.75242409079785633
0.002009509145210586212 4.06256862896778781 0.002009509145210586212 3.25123576276030413
0.002529822128153114136 4.87262978517099388 0.002529822128153114136 3.82369820071855981
0.003184857364431081805 5.82340096048252942 0.003184857364431081805 4.47740544862151690
0.004009497869020606231 6.93448376363519525 0.004009497869020606231 5.22041421325152832
0.005047658755856332391 8.22739162177497718 0.005047658755856332391 6.06135613333621759
0.006354625877790454069 9.72569688171947355 0.006354625877790454069 7.00958882176137266
0.007999999999995566213 11.45521623583050896 0.007999999999995566213 8.07537417479161768
0.010071403294347192059 13.44423920009300844 0.010071403294347192059 9.27009024170982343
0.012679145539706837553 15.72381007176693757 0.012679145539706837553 10.60653449782244806
0.015962098519764822413 18.32809460462038231 0.015962098519764822413 12.09939260906304703
0.020095091452077440408 21.29487576171058905 0.020095091452077440408 13.76577883758884191
0.025298221281346400247 24.66616630590038284 0.025298221281346400247 15.62535478645727238
0.031848573644282396344 28.48875510550095669 0.031848573644282396344 17.69920379167951552
0.040094978690177640601 32.81429575854535585 0.040094978690177640601 20.00687340321123386
0.050476587558421215363 37.69848362471683600 0.050476587558421215363 22.56191504279014381
0.063546258777947173257 43.19908129637914129 0.063546258777947173257 25.36767357024908875
0.079999999999998294697 49.37314546572531526 0.079999999999998294697 28.41546743249176288
0.100714032943528764008 56.27420028720651857 0.100714032943528764008 31.68554051234786328
0.126791455396883634421 63.94988465949018064 0.126791455396883634421 35.15226119290804263
0.159620985197506115583 72.44149495403546268 0.159620985197506115583 38.79283510879297836
0.200950914520774404082 81.78560851739425175 0.200950914520774404082 42.58848360481200501
0.252982212813464002465 92.01412487882777214 0.252982212813464002465 46.53331535919696904
0.318485736442795541734 103.15990205301233118 0.318485736442795541734 50.64681069044596029
0.400949786901833249431 115.26243777687656689 0.400949786901833249431 54.94499613167202057
0.504765875584169521062 128.36014596520149667 0.504765875584169521062 59.47457270412990482
0.635462587779429100010 142.51149205541892684 0.635462587779429100010 64.28905997657579974
0.800000000000011368684 157.77612201026843763 0.800000000000011368684 69.46320350058333304
1.007140329435344483500 174.24214470325526349 1.007140329435344483500 75.07431952893223581
1.267914553968893187630 191.99836874505840001 1.267914553968893187630 81.17644110935425772
1.596209851975103788391 211.14904310860467263 1.596209851975103788391 87.81040671547241061
2.009509145207672986544 231.79017765272490692 2.009509145207672986544 94.93035247410935540
2.529822128134725289783 253.99016903305602000 2.529822128134725289783 102.40236713713834149
3.184857364427998049905 277.76534820851259155 3.184857364427998049905 109.99690771129708367
4.009497869018190385759 303.05745274190536520 4.009497869018190385759 117.41080115634669312
5.009497869018204596614 328.82046382654402805 5.009497869018204596614 124.09058082884475027
6.009497869018190385759 350.67577099639373728 6.009497869018190385759 128.99670151901162285
7.009497869018190385759 369.60129910724953106 7.009497869018190385759 132.59867713856937144
8.009497869018204596614 386.22818206540529218 8.009497869018204596614 135.19816091954467652
9.009497869018190385759 400.99988348258148108 9.009497869018190385759 136.99668092842489386
10.009497869018190385759 414.24638078871311109 10.009497869018190385759 138.16331148360637826
11.009497869018204596614 426.21039556827122396 11.009497869018204596614 138.98935717564978631
12.009497869018190385759 437.08271930919232773 12.009497869018190385759 139.42168128409088013
13.009497869018190385759 447.01379862127930664 13.009497869018190385759 139.53604653570261007
14.009497869018204596614 456.12538160699091350 14.009497869018204596614 139.38850945344046295
15.009497869018190385759 464.51765356745107738 15.009497869018190385759 138.98599980865060388
16.009497869018190385759 472.27441330182142565 16.009497869018190385759 138.34337473588362855
17.009497869018190385759 479.45785740641861139 17.009497869018190385759 137.36422369557246270
18.009497869018204596614 486.12486968739926851 18.009497869018204596614 136.23121490811354306
19.009497869018190385759 492.32267121492662909 19.009497869018190385759 134.74258266793535199
20.009497869018190385759 498.08995442561268874 20.009497869018190385759 133.27759387245168909
21.009497869018204596614 503.46100393609742696 21.009497869018204596614 131.71355446197352990
22.009497869018190385759 508.47365487572972143 22.009497869018190385759 130.07416252651606214
23.009497869018190385759 513.16686228589890106 23.009497869018190385759 128.31905749532774053
24.009497869018204596614 517.56679484266521740 24.009497869018204596614 126.55868802048854604
25.009497869018190385759 521.69712881562668372 25.009497869018190385759 124.70308824816176241
26.009497869018190385759 525.57931665599119242 26.009497869018190385759 122.56926413140028842
27.009497869018204596614 529.23089123860142990 27.009497869018204596614 120.38798348795688753
28.009497869018190385759 532.65690754829745401 28.009497869018190385759 118.11826878871794122
29.009497869018190385759 535.86597966763577006 29.009497869018190385759 115.81824371874192536
30.009497869018190385759 538.87514519836884119 30.009497869018190385759 113.51334933401240335
31.009497869018190385759 541.69158984329965278 31.009497869018190385759 111.14588852225909932
32.009497869018190385759 544.33983665542814379 32.009497869018190385759 108.76878632759063237
33.009497869018190385759 546.83955992905714538 33.009497869018190385759 106.43151960507886145
34.009497869018190385759 549.20060342231704453 34.009497869018190385759 104.07482277546411353
35.009497869018190385759 551.42922230099645731 35.009497869018190385759 101.62357967493076671
36.009497869018190385759 553.53386565094069738 36.009497869018190385759 99.34276029838768807
37.009497869018190385759 555.51942574084705484 37.009497869018190385759 97.07765106817815592
38.009497869018190385759 557.39043602022638879 38.009497869018190385759 94.79276602496082660
39.009497869018190385759 559.15105948377220102 39.009497869018190385759 92.46153928149034584
40.009497869018190385759 560.81144083999049599 40.009497869018190385759 90.03823196874968460
41.009497869018190385759 562.37801042938201590 41.009497869018190385759 87.79858146680363973
42.009497869018190385759 563.85664990862505874 42.009497869018190385759 85.50137476609579323
43.009497869018190385759 565.25310302420461994 43.009497869018190385759 83.28011104484936311
44.009497869018190385759 566.57245308540518636 44.009497869018190385759 81.04163865491538843
46.009497869018190385759 568.99791248678820921 46.009497869018190385759 76.72367523737237605
48.009497869018190385759 571.16578321526128548 48.009497869018190385759 72.59621144103516599
50.009497869018218807469 573.10392306847040800 50.009497869018218807469 68.60038104958721306
52.009497869018190385759 574.83900797328647059 52.009497869018190385759 64.75667873207328284
54.009497869018190385759 576.39291876619313371 54.009497869018190385759 61.09617218713715658
56.009497869018190385759 577.78590335234662234 56.009497869018190385759 57.58736722796671614
58.009497869018190385759 579.03503749875824269 58.009497869018190385759 54.24529209744662239
60.009497869018190385759 580.15647092336428159 60.009497869018190385759 51.06574032685984577
62.009497869018190385759 581.16316137712180989 62.009497869018190385759 48.03653751093499125
64.009497869018190385759 582.06840333184106839 64.009497869018190385759 45.15703485336349132
66.009497869018218807469 582.88213012882806652 66.009497869018218807469 42.45362764943440936
68.009497869018190385759 583.61415325983898583 68.009497869018190385759 39.89803595183614249
70.009497869018190385759 584.27310754457698749 70.009497869018190385759 37.44685722352843271
72.009497869018190385759 584.86606619867211521 72.009497869018190385759 35.16577346771499180
74.009497869018218807469 585.40034102003789940 74.009497869018218807469 32.99215994923367390
76.009497869018190385759 585.88189794339734817 76.009497869018190385759 30.93668051783181028
78.009497869018190385759 586.31600469929048813 78.009497869018190385759 28.98935487346698281
80.009497869018218807469 586.70755960802932805 80.009497869018218807469 27.16162202755364419
82.009497869018190385759 587.06065721481820674 82.009497869018190385759 25.42530763045643383
84.009497869018190385759 587.37897091507556979 84.009497869018190385759 23.73204756703504259
86.009497869018218807469 587.66623683356226593 86.009497869018218807469 22.18155633022150042
88.009497869018190385759 587.92548232305910005 88.009497869018190385759 20.67032931084892766
91.009497869018190385759 588.26767512756157430 91.009497869018190385759 18.57950035481559325
94.009497869018190385759 588.56141231084427545 94.009497869018190385759 16.63475816502323923
97.009497869018190385759 588.81293688626396943 97.009497869018190385759 14.87762595902884577
99.504748934509137825444 588.99442658052419119 99.504748934509137825444 12.64434043186384571
nan nan nan nan

