Time Pressure difference Time.1 Pressure.1 difference.1
(hr) (psi) (hr) (psi)
0.000200000000006639311 0.33628296707608257 0.000200000000006639311 0.26954858009421501
0.000399999999999067768 0.62883513825390502 0.000399999999999067768 0.57458098870391594
0.000600000000019917934 0.89798035995657510 0.000600000000019917934 0.78877714778991070
0.000799999999998135536 1.15040574228130299 0.000799999999998135536 0.98756467826820937
0.001007140329448930061 1.39809214068629095 0.001007140329448930061 1.18011730714481677
0.001267914553963578328 1.69386421226592554 0.001267914553963578328 1.40601056123655721
0.001596209851982166583 2.04557548615017959 0.001596209851982166583 1.66803116167548859
0.002009509145210586212 2.46200834101812038 0.002009509145210586212 1.97032230039300704
0.002529822128153114136 2.95292369665946053 0.002529822128153114136 2.31724746668389514
0.003184857364431081805 3.52911250177297564 0.003184857364431081805 2.71340882269032990
0.004009497869020606231 4.20245377394705066 0.004009497869020606231 3.16368891468066282
0.005047658755856332391 4.98598513590629100 0.005047658755856332391 3.67331871066674198
0.006354625877790454069 5.89399196219636767 0.006354625877790454069 4.24796913539616394
0.007999999999995566213 6.94211975145061011 0.007999999999995566213 4.89385912976706550
0.010071403294347192059 8.14751258926590083 0.010071403294347192059 5.61788404861461199
0.012679145539706837553 9.52898402090769103 0.012679145539706837553 6.42779945100155903
0.015962098519764822413 11.10723926478248735 0.015962098519764822413 7.33250518215489500
0.020095091452077440408 12.90517564981958998 0.020095091452077440408 8.34237287146224737
0.025298221281346400247 14.94825385915920357 0.025298221281346400247 9.46931789442768412
0.031848573644282396344 17.26482900371011553 0.031848573644282396344 10.72611722883463692
0.040094978690177640601 19.88620433046099123 0.040094978690177640601 12.12461713143165198
0.050476587558421215363 22.84613248524244611 0.050476587558421215363 13.67303006984647240
0.063546258777947173257 26.17961890357732102 0.063546258777947173257 15.37338310468044078
0.079999999999998294697 29.92124122954244214 0.079999999999998294697 17.22041501868697821
0.100714032943528764008 34.10343630956179339 0.100714032943528764008 19.20215315867505623
0.126791455396883634421 38.75507439213770766 0.126791455396883634421 21.30306418591541373
0.159620985197506115583 43.90118201104030504 0.159620985197506115583 23.50933420018445474
0.200950914520774404082 49.56392586436815861 0.200950914520774404082 25.80958291232646928
0.252982212813464002465 55.76263778729461507 0.252982212813464002465 28.20024004829627984
0.318485736442795541734 62.51723047880170725 0.318485736442795541734 30.69311112106072414
0.400949786901833249431 69.85164045951241008 0.400949786901833249431 33.29790857164063311
0.504765875584169521062 77.78914742935047855 0.504765875584169521062 36.04293427364459745
0.635462587779429100010 86.36518276382351189 0.635462587779429100010 38.96062229446186365
0.800000000000011368684 95.61589326343745654 0.800000000000011368684 42.09627012645138677
1.007140329435344483500 105.59467489544830698 1.007140329435344483500 45.49673316496143372
1.267914553968893187630 116.35534768364267677 1.267914553968893187630 49.19475665723727076
1.596209851975103788391 127.96108886004523697 1.596209851975103788391 53.21508964061879254
2.009509145207672986544 140.47008256746065058 2.009509145207672986544 57.52993757213904047
2.529822128134725289783 153.92377872392228255 2.529822128134725289783 62.05814721108884413
3.184857364427998049905 168.33207425936211621 3.184857364427998049905 66.66061031939334214
4.009497869018190385759 183.65966082100413814 4.009497869018190385759 71.15359718759782481
5.009497869018204596614 199.27262738798086161 5.009497869018204596614 75.20169452990214154
6.009497869018190385759 212.51743712830386812 6.009497869018190385759 78.17491447137091143
7.009497869018190385759 223.98673459071710568 7.009497869018190385759 80.35779304633500431
8.009497869018204596614 234.06300117639995051 8.009497869018204596614 81.93313892614816041
9.009497869018190385759 243.01498584954435955 9.009497869018190385759 83.02308267055109070
10.009497869018190385759 251.04266238512974496 10.009497869018190385759 83.73008713498354894
11.009497869018204596614 258.29312554513796840 11.009497869018204596614 84.23068948034985226
12.009497869018190385759 264.88199928022567065 12.009497869018190385759 84.49268765397226844
13.009497869018190385759 270.90045763372387455 13.009497869018190385759 84.56199557935302380
14.009497869018204596614 276.42228270536583068 14.009497869018204596614 84.47258477542251853
15.009497869018190385759 281.50818905028717154 15.009497869018190385759 84.22865484012324089
16.009497869018190385759 286.20896063334976134 16.009497869018190385759 83.83920953253675634
17.009497869018190385759 290.56228999661254875 17.009497869018190385759 83.24582188828293283
18.009497869018204596614 294.60265001130971996 18.009497869018204596614 82.55919297442765981
19.009497869018190385759 298.35865771243356903 19.009497869018190385759 81.65704821657814705
20.009497869018190385759 301.85376159042777999 20.009497869018190385759 80.76923192019343389
21.009497869018204596614 305.10873889728361519 21.009497869018204596614 79.82138871409438252
22.009497869018190385759 308.14651857588137318 22.009497869018190385759 78.82788017604423203
23.009497869018190385759 310.99070826109056043 23.009497869018190385759 77.76424688863649237
24.009497869018204596614 313.65716676161514442 24.009497869018204596614 76.69742322948052049
25.009497869018190385759 316.16024243155294471 25.009497869018190385759 75.57288785930003883
26.009497869018190385759 318.51293594083273319 26.009497869018190385759 74.27974225278084930
27.009497869018204596614 320.72587260758405137 27.009497869018204596614 72.95783691930135717
28.009497869018190385759 322.80211586678501590 28.009497869018190385759 71.58233855075378926
29.009497869018190385759 324.74688604701140093 29.009497869018190385759 70.18847141298915915
30.009497869018190385759 326.57050831971412208 30.009497869018190385759 68.79165336051190138
31.009497869018190385759 328.27733738307870226 31.009497869018190385759 67.35691864021474373
32.009497869018190385759 329.88223476106873022 32.009497869018190385759 65.91634102412331231
33.009497869018190385759 331.39712352036963239 33.009497869018190385759 64.49990460383072843
34.009497869018190385759 332.82796920072672719 34.009497869018190385759 63.07169309981073724
35.009497869018190385759 334.17856257387865071 35.009497869018190385759 61.58618442031563944
36.009497869018190385759 335.45402397666799743 36.009497869018190385759 60.20395636652604310
37.009497869018190385759 336.65731823441547022 37.009497869018190385759 58.83124901622340275
38.009497869018190385759 337.79119271991140749 38.009497869018190385759 57.44655707660738386
39.009497869018190385759 338.85817030195977395 39.009497869018190385759 56.03378102002488959
40.009497869018190385759 339.86439890303068978 40.009497869018190385759 54.56520205885333041
41.009497869018190385759 340.81377545469450752 41.009497869018190385759 53.20792327285590773
42.009497869018190385759 341.70986437373392164 42.009497869018190385759 51.81576413051978136
43.009497869018190385759 342.55614650023943568 43.009497869018190385759 50.46962814888612314
44.009497869018190385759 343.35570243444249172 44.009497869018190385759 49.11306332537532882
46.009497869018190385759 344.82558560993561514 46.009497869018190385759 46.49627997446783212
48.009497869018190385759 346.13936423208429005 48.009497869018190385759 43.99494369638642866
50.009497869018218807469 347.31392075542186149 50.009497869018218807469 41.57338023456791376
52.009497869018190385759 348.36542139409959873 52.009497869018190385759 39.24400982131918880
54.009497869018190385759 349.30712642919854716 54.009497869018190385759 37.02566018367282652
56.009497869018190385759 350.15130654853629721 56.009497869018190385759 34.89924513313415844
58.009497869018190385759 350.90831005257240349 58.009497869018190385759 32.87387212429952399
60.009497869018190385759 351.58792403511284874 60.009497869018190385759 30.94699194212460469
62.009497869018190385759 352.19800118588437954 62.009497869018190385759 29.11122662205972134
64.009497869018190385759 352.74659825505551680 64.009497869018190385759 27.36618297888904294
66.009497869018218807469 353.23973507179920261 66.009497869018218807469 25.72785715768735315
68.009497869018190385759 353.68335762170920589 68.009497869018190385759 24.17911087168990747
70.009497869018190385759 354.08269880054035639 70.009497869018190385759 22.69364120321736067
72.009497869018190385759 354.44204513671093082 72.009497869018190385759 21.31125292961899831
74.009497869018218807469 354.76582774489122585 74.009497869018218807469 19.99399404702617744
76.009497869018190385759 355.05766211626212225 76.009497869018190385759 18.74832708922554758
78.009497869018190385759 355.32074061450106228 78.009497869018190385759 17.56820376898940239
80.009497869018218807469 355.55803173234397718 80.009497869018218807469 16.46055638558144452
82.009497869018190385759 355.77201685665892228 82.009497869018190385759 15.40831064681362328
84.009497869018190385759 355.96492214803197385 84.009497869018190385759 14.38215680662223939
86.009497869018218807469 356.13901178244742596 86.009497869018218807469 13.44252409974527396
88.009497869018190385759 356.29612040406220785 88.009497869018190385759 12.52668639540782003
91.009497869018190385759 356.50349697190995357 91.009497869018190385759 11.25959682732237432
94.009497869018190385759 356.68150833894321750 94.009497869018190385759 10.08103913890366954
97.009497869018190385759 356.83393791225279301 97.009497869018190385759 9.01617733778034314
99.504748934509137825444 356.94392476586352814 99.504748934509137825444 7.66275587025123883
nan nan nan nan

