Time Pressure difference Time.1 Pressure.1 difference.1
(hr) (psi) (hr) (psi)
0.000200000000006639311 0.68927564680190834 0.000200000000006639311 0.55249087845398104
0.000399999999999067768 1.28891674300489845 0.000399999999999067768 1.17771258554218816
0.000600000000019917934 1.84058086202279370 0.000600000000019917934 1.61674819112217727
0.000799999999998135536 2.35797450281260845 0.000799999999998135536 2.02420089334477682
0.001007140329448930061 2.86565469830109354 0.001007140329448930061 2.41887398358875494
0.001267914553963578328 3.47189559035872897 0.001267914553963578328 2.88188500129232228
0.001596209851982166583 4.19279447471775946 0.001596209851982166583 3.41894585933485251
0.002009509145210586212 5.04635250022347659 0.002009509145210586212 4.03854881447013891
0.002529822128153114136 6.05257652110324251 0.002529822128153114136 4.74963766463158699
0.003184857364431081805 7.23358463096324122 0.003184857364431081805 5.56164541296775639
0.004009497869020606231 8.61372512672376800 0.004009497869020606231 6.48457976301005345
0.005047658755856332391 10.21972108601910634 0.005047658755856332391 7.52916257465853977
0.006354625877790454069 12.08085309021615927 0.006354625877790454069 8.70701748248903229
0.007999999999995566213 14.22918955266274033 0.007999999999995566213 10.03089138399460545
0.010071403294347192059 16.69987052458228050 0.010071403294347192059 11.51491761517280565
0.012679145539706837553 19.53145793105303341 0.012679145539706837553 13.17499266354356813
0.015962098519764822413 22.76639103961628052 0.015962098519764822413 15.02935844789512743
0.020095091452077440408 26.45160226360536981 0.020095091452077440408 17.09927358746920234
0.025298221281346400247 30.63927809641327471 0.025298221281346400247 19.40916090162195928
0.031848573644282396344 35.38753770946794219 0.031848573644282396344 21.98520922680391365
0.040094978690177640601 40.76054303759084263 0.040094978690177640601 24.85169971038785519
0.050476587558421215363 46.82747652254662540 0.050476587558421215363 28.02546536055488602
0.063546258777947173257 53.66008843590382327 0.063546258777947173257 31.51066102201580676
0.079999999999998294697 61.32925220962114565 0.079999999999998294697 35.29650283333356242
0.100714032943528764008 69.90145330531298384 0.100714032943528764008 39.35845057368178601
0.126791455396883634421 79.43586676649344724 0.126791455396883634421 43.66466572268375756
0.159620985197506115583 89.98378921517578988 0.159620985197506115583 48.18683407491224102
0.200950914520774404082 101.59065549839435505 0.200950914520774404082 52.90162957184929127
0.252982212813464002465 114.29608987457903879 0.252982212813464002465 57.80173426048305885
0.318485736442795541734 128.14090719257492879 0.318485736442795541734 62.91134577608719525
0.400949786901833249431 143.17416988595709881 0.400949786901833249431 68.25037160646837719
0.504765875584169521062 159.44359410984878878 0.504765875584169521062 73.87682180312246771
0.635462587779429100010 177.02180318050781693 0.635462587779429100010 79.85717613150569605
0.800000000000011368684 195.98288681325689709 0.800000000000011368684 86.28428038340966566
1.007140329435344483500 216.43629015837228735 1.007140329435344483500 93.25417356793337831
1.267914553968893187630 238.49232755032349473 1.267914553968893187630 100.83397327259812926
1.596209851975103788391 262.28049269450264092 1.596209851975103788391 109.07440733791429466
2.009509145207672986544 287.92004501404977646 2.009509145207672986544 117.91850558264523841
2.529822128134725289783 315.49594396828786103 2.529822128134725289783 127.19992906620696260
3.184857364427998049905 345.02847518999681142 3.184857364427998049905 136.63354910186211555
4.009497869018190385759 376.44526752131281455 4.009497869018190385759 145.84277684414459486
5.009497869018204596614 408.44700023623414609 5.009497869018204596614 154.14011922278078259
6.009497869018190385759 435.59474690894580817 6.009497869018190385759 160.23429674256146882
7.009497869018190385759 459.10324481327103285 7.009497869018190385759 164.70851990863695846
8.009497869018204596614 479.75646203858372019 8.009497869018204596614 167.93748972440306488
9.009497869018190385759 498.10525049906607364 9.009497869018190385759 170.17153590858299594
10.009497869018190385759 514.55949432976910884 10.009497869018190385759 171.62067549406566513
11.009497869018204596614 529.42069211115244798 11.009497869018204596614 172.64675483549970636
12.009497869018190385759 542.92583703400305239 12.009497869018190385759 173.18376972553321025
13.009497869018190385759 555.26180757222903139 13.009497869018190385759 173.32582944836335059
14.009497869018204596614 566.57983411658847217 14.009497869018204596614 173.14256506763621246
15.009497869018190385759 577.00436264965696864 15.009497869018190385759 172.64258445491100247
16.009497869018190385759 586.63948452798399558 16.009497869018190385759 171.84434252010638033
17.009497869018190385759 595.56245775703189338 17.009497869018190385759 170.62808213126314172
18.009497869018204596614 603.84394101697023416 18.009497869018204596614 169.22070609665300367
19.009497869018190385759 611.54259034225526648 19.009497869018190385759 167.37158951224091652
20.009497869018190385759 618.70646785615633689 20.009497869018190385759 165.55184182399895576
21.009497869018204596614 625.37816047269325281 21.009497869018204596614 163.60905761274003112
22.009497869018190385759 631.60466540398044799 22.009497869018190385759 161.57267365276149462
23.009497869018190385759 637.43437096993716295 23.009497869018190385759 159.39255573447232450
24.009497869018204596614 642.89978280331058613 24.009497869018204596614 157.20589854489793424
25.009497869018190385759 648.03031057399050496 25.009497869018190385759 154.90095027061497035
26.009497869018190385759 652.85260161785606670 26.009497869018190385759 152.25040337526510825
27.009497869018204596614 657.38843453728406985 27.009497869018204596614 149.54090797123879497
28.009497869018190385759 661.64408842260297661 28.009497869018190385759 146.72156348912264434
29.009497869018190385759 665.63026332617243952 29.009497869018190385759 143.86456873469825268
30.009497869018190385759 669.36812264289233099 30.009497869018190385759 141.00152552154614227
31.009497869018190385759 672.86659215165207115 31.009497869018190385759 138.06076491472586554
32.009497869018190385759 676.15613336119679389 32.009497869018190385759 135.10802818609124643
33.009497869018190385759 679.26118485541599057 33.009497869018190385759 132.20477341157851470
34.009497869018190385759 682.19397413813544517 34.009497869018190385759 129.27738337228291243
35.009497869018190385759 684.96227111416123989 35.009497869018190385759 126.23255191741714043
36.009497869018190385759 687.57657088385371935 36.009497869018190385759 123.39941367051920906
37.009497869018190385759 690.04295041836724067 37.009497869018190385759 120.58578990902933015
38.009497869018190385759 692.36704097870028818 38.009497869018190385759 117.74760146136917172
39.009497869018190385759 694.55401366240209882 39.009497869018190385759 114.85184929570318957
40.009497869018190385759 696.61646980124294259 40.009497869018190385759 111.84171850572421647
41.009497869018190385759 698.56239689471544807 41.009497869018190385759 109.05971850958043490
42.009497869018190385759 700.39910089026204787 42.009497869018190385759 106.20622461535110403
43.009497869018190385759 702.13371642906213310 43.009497869018190385759 103.44706390765477977
44.009497869018190385759 703.77255778488222404 44.009497869018190385759 100.66652731288110090
46.009497869018190385759 706.78536180918490572 46.009497869018190385759 95.30293410915766117
48.009497869018190385759 709.47819997880640130 48.009497869018190385759 90.17597155159951683
50.009497869018218807469 711.88567608254174957 50.009497869018218807469 85.21251849321372163
52.009497869018190385759 714.04092583883766565 52.009497869018190385759 80.43803255301449440
54.009497869018190385759 715.97112870581088373 54.009497869018190385759 75.89110472429834431
56.009497869018190385759 717.70143578271415663 56.009497869018190385759 71.53261424803895352
58.009497869018190385759 719.25305787173226690 58.009497869018190385759 67.38122857775678654
60.009497869018190385759 720.64605547569715327 60.009497869018190385759 63.43172261429266712
62.009497869018190385759 721.89652416982505656 62.009497869018190385759 59.66897382161310048
64.009497869018190385759 723.02097778986535559 64.009497869018190385759 56.09217629213281953
66.009497869018218807469 724.03175511611027559 66.009497869018218807469 52.73411715550823686
68.009497869018190385759 724.94104357244737002 68.009497869018190385759 49.55966824632092482
70.009497869018190385759 725.75956897005175961 70.009497869018190385759 46.51491675193619812
72.009497869018190385759 726.49611736096028380 72.009497869018190385759 43.68145010418800922
74.009497869018218807469 727.15977115412488274 74.009497869018218807469 40.98147848148222749
76.009497869018190385759 727.75794098364281126 76.009497869018190385759 38.42824807108342355
78.009497869018190385759 728.29717020363568736 78.009497869018190385759 36.00936176252486121
80.009497869018218807469 728.78354330231991298 80.009497869018218807469 33.73902861640916484
82.009497869018190385759 729.22214635215811995 82.009497869018190385759 31.58225163632606325
84.009497869018190385759 729.61754229099722124 84.009497869018190385759 29.47895494525055327
86.009497869018218807469 729.97437197644489970 86.009497869018218807469 27.55299970755242356
88.009497869018190385759 730.29639585925792744 88.009497869018190385759 25.67581683530795544
91.009497869018190385759 730.72145342068495211 91.009497869018190385759 23.07867672680983517
94.009497869018190385759 731.08632144007003717 94.009497869018190385759 20.66299947725596908
97.009497869018190385759 731.39875472697781333 97.009497869018190385759 18.48036348737585755
99.504748934509137825444 731.62419361947183916 99.504748934509137825444 15.70626979616713648
nan nan nan nan

