Time Pressure difference Time.1 Pressure.1 difference.1
(hr) (psi) (hr) (psi)
0.000200000000006639311 0.41565410216236293 0.000200000000006639311 0.33316874185558248
0.000399999999999067768 0.77725585411507514 0.000399999999999067768 0.71019637734210739
0.000600000000019917934 1.10992603497738163 0.000600000000019917934 0.97494815161610093
0.000799999999998135536 1.42193007896881540 0.000799999999998135536 1.22065447810791095
0.001007140329448930061 1.72807662109671978 0.001007140329448930061 1.45865431131564316
0.001267914553963578328 2.09365824994359739 0.001267914553963578328 1.73786398562779443
0.001596209851982166583 2.52838212263283113 0.001596209851982166583 2.06172795759889604
0.002009509145210586212 3.04310347740748988 0.002009509145210586212 2.43536731539259899
0.002529822128153114136 3.64988705363498545 0.002529822128153114136 2.86417544018692638
0.003184857364431081805 4.36207073200510642 0.003184857364431081805 3.35384071872904110
0.004009497869020606231 5.19433727338796913 0.004009497869020606231 3.91039809951212369
0.005047658755856332391 6.16280150338727939 0.005047658755856332391 4.54031318896075486
0.006354625877790454069 7.28512049985762289 0.006354625877790454069 5.25059539095550676
0.007999999999995566213 8.58063248781783372 0.007999999999995566213 6.04893147095432226
0.010071403294347192059 10.07052798300567886 0.010071403294347192059 6.94384425884663070
0.012679145539706837553 11.77806099478652513 0.012679145539706837553 7.94491981831869687
0.015962098519764822413 13.72882368752618198 0.015962098519764822413 9.06315857918524159
0.020095091452077440408 15.95111772865899802 0.020095091452077440408 10.31138013304960843
0.025298221281346400247 18.47641315510982096 0.025298221281346400247 11.70431218006899776
0.031848573644282396344 21.33975758843672921 0.031848573644282396344 13.25774738222417781
0.040094978690177640601 24.57984261963811790 0.040094978690177640601 14.98632800717328273
0.050476587558421215363 28.23838735753569651 0.050476587558421215363 16.90020486894067275
0.063546258777947173257 32.35865939013594073 0.063546258777947173257 19.00188346479135149
0.079999999999998294697 36.98339754458972806 0.079999999999998294697 21.28486079949508536
0.100714032943528764008 42.15269456896147204 0.100714032943528764008 23.73433837625053044
0.126791455396883634421 47.90223480767331665 0.126791455396883634421 26.33111660246687791
0.159620985197506115583 54.26295167824236643 0.159620985197506115583 29.05812115426525821
0.200950914520774404082 61.26224377024386314 0.200950914520774404082 31.90128571150911441
0.252982212813464002465 68.92400571224614225 0.252982212813464002465 34.85619732677614735
0.318485736442795541734 77.27285009491639300 0.318485736442795541734 37.93744790739803818
0.400949786901833249431 86.33836305244078346 0.400949786901833249431 41.15704227177941732
0.504765875584169521062 96.14931887230275720 0.504765875584169521062 44.54996223885264328
0.635462587779429100010 106.74951161491229357 0.635462587779429100010 48.15629712172615484
0.800000000000011368684 118.18361962375188057 0.800000000000011368684 52.03203574635915629
1.007140329435344483500 130.51764164095783372 1.007140329435344483500 56.23509254551134262
1.267914553968893187630 143.81810055307386165 1.267914553968893187630 60.80594145832432673
1.596209851975103788391 158.16308498850312958 1.596209851975103788391 65.77517290983315945
2.009509145207672986544 173.62451199332093665 2.009509145207672986544 71.10843215438305265
2.529822128134725289783 190.25361469602816555 2.529822128134725289783 76.70541177022784041
3.184857364427998049905 208.06262594790717912 3.184857364427998049905 82.39417051900170463
4.009497869018190385759 227.00790374770076596 4.009497869018190385759 87.94761391510537862
5.009497869018204596614 246.30591832427447230 5.009497869018204596614 92.95116280404053555
6.009497869018190385759 262.67683222690976663 6.009497869018190385759 96.62613652051435054
7.009497869018190385759 276.85316884194224940 7.009497869018190385759 99.32422867217805162
8.009497869018204596614 289.30768468387321946 8.009497869018204596614 101.27139531865518052
9.009497869018190385759 300.37256014943682203 9.009497869018190385759 102.61859286608489583
10.009497869018190385759 310.29496779280015062 10.009497869018190385759 103.49246794945172212
11.009497869018204596614 319.25672039430099858 11.009497869018204596614 104.11122488564983257
12.009497869018190385759 327.40073202959575838 12.009497869018190385759 104.43506113751851672
13.009497869018190385759 334.83969608143507912 13.009497869018190385759 104.52072745522517039
14.009497869018204596614 341.66480905818514202 14.009497869018204596614 104.41021348018063009
15.009497869018190385759 347.95111565842950085 15.009497869018190385759 104.10871001977967865
16.009497869018190385759 353.76138612445095077 16.009497869018190385759 103.62734594394294163
17.009497869018190385759 359.14220937469497130 17.009497869018190385759 102.89390407309505804
18.009497869018204596614 364.13619473447602104 18.009497869018204596614 102.04521367646648855
19.009497869018190385759 368.77871357002663899 19.009497869018190385759 100.93014034223013198
20.009497869018190385759 373.09874879810638504 20.009497869018190385759 99.83277734235089440
21.009497869018204596614 377.12198161838171018 21.009497869018204596614 98.66121959071293190
22.009497869018190385759 380.87675277391548434 22.009497869018190385759 97.43321835424102062
23.009497869018190385759 384.39224188793178882 23.009497869018190385759 96.11854118533331359
24.009497869018204596614 387.68805084199635758 24.009497869018204596614 94.79992063768088428
25.009497869018190385759 390.78191455825486855 25.009497869018190385759 93.40996698137085730
26.009497869018190385759 393.68990218773740253 26.009497869018190385759 91.81160688387198832
27.009497869018204596614 396.42514688763492359 27.009497869018204596614 90.17769904932278280
28.009497869018190385759 398.99143513969085006 28.009497869018190385759 88.47754889192547978
29.009497869018190385759 401.39521939972212294 29.009497869018190385759 86.75469447940893986
30.009497869018190385759 403.64926183616842081 30.009497869018190385759 85.02819266299296430
31.009497869018190385759 405.75894496417799928 31.009497869018190385759 83.25482490312255379
32.009497869018190385759 407.74263799660047880 32.009497869018190385759 81.47423517888532274
33.009497869018190385759 409.61507814008416517 33.009497869018190385759 79.72348457243673181
34.009497869018190385759 411.38363894996655290 34.009497869018190385759 77.95817966995241477
35.009497869018190385759 413.05300591429721635 35.009497869018190385759 76.12205403504852086
36.009497869018190385759 414.62950789662693296 36.009497869018190385759 74.41358581949491224
37.009497869018190385759 416.11680949471229951 37.009497869018190385759 72.71688542999041260
38.009497869018190385759 417.51830652957994516 38.009497869018190385759 71.00537179034080282
39.009497869018190385759 418.83711732975160658 39.009497869018190385759 69.25914548437859253
40.009497869018190385759 420.08084088014351209 40.009497869018190385759 67.44394540193671617
41.009497869018190385759 421.25429388499509287 41.009497869018190385759 65.76631510123183944
42.009497869018190385759 422.36188205200647872 42.009497869018190385759 64.04557181349960615
43.009497869018190385759 423.40790778601024158 43.009497869018190385759 62.38171429582818917
44.009497869018190385759 424.39617878542895824 44.009497869018190385759 60.70496647049496630
46.009497869018190385759 426.21299090917506192 46.009497869018190385759 57.47055723552234241
48.009497869018190385759 427.83685392661351443 48.009497869018190385759 54.37884345081303650
50.009497869018218807469 429.28863497098728885 50.009497869018218807469 51.38573084893797471
52.009497869018190385759 430.58831588463237949 52.009497869018190385759 48.50657114560571159
54.009497869018190385759 431.75228670441316581 54.009497869018190385759 45.76463587919809584
56.009497869018190385759 432.79571430533366083 56.009497869018190385759 43.13633404654470382
58.009497869018190385759 433.73138944386278126 58.009497869018190385759 40.63292268779878924
60.009497869018190385759 434.57140921110220688 60.009497869018190385759 38.25125090983102183
62.009497869018190385759 435.32547972665207681 62.009497869018190385759 35.98219936515456396
64.009497869018190385759 436.00355933388851781 64.009497869018190385759 33.82528206707403484
66.009497869018218807469 436.61308869123007526 66.009497869018218807469 31.80027064832163219
68.009497869018190385759 437.16141718459709864 68.009497869018190385759 29.88598176066019363
70.009497869018190385759 437.65501280315243093 70.009497869018190385759 28.04990434434940738
72.009497869018190385759 438.09917380251852137 72.009497869018190385759 26.34123809313155462
74.009497869018218807469 438.49937715051771647 74.009497869018218807469 24.71307338731807235
76.009497869018190385759 438.86009168407554171 76.009497869018190385759 23.17339807922909500
78.009497869018190385759 439.18526324401062766 78.009497869018190385759 21.71473633558317218
80.009497869018218807469 439.47856096109597956 80.009497869018218807469 20.34565665050128658
82.009497869018190385759 439.74305189114988934 82.009497869018190385759 19.04505477463298746
84.009497869018190385759 439.98148762396499478 84.009497869018190385759 17.77670313365108967
86.009497869018218807469 440.19666673731080664 86.009497869018218807469 16.61529376303919037
88.009497869018190385759 440.39085689694644543 88.009497869018190385759 15.48329560674631011
91.009497869018190385759 440.64717948701911610 91.009497869018190385759 13.91714142010653710
94.009497869018190385759 440.86720595931495836 94.009497869018190385759 12.46041483628465940
97.009497869018190385759 441.05561269899573063 97.009497869018190385759 11.14421919390241023
99.504748934509137825444 441.19155918265113314 99.504748934509137825444 9.47135663465836330
nan nan nan nan

