Time Pressure difference Time.1 Pressure.1 difference.1
(hr) (psi) (hr) (psi)
0.000200000000006639311 0.48040423868011800 0.000200000000006639311 0.38506940013459279
0.000399999999999067768 0.89833591179129291 0.000399999999999067768 0.82082998386273709
0.000600000000019917934 1.28282908565225018 0.000600000000019917934 1.12682449684272967
0.000799999999998135536 1.64343677468757576 0.000799999999998135536 1.41080668324029901
0.001007140329448930061 1.99727448669470120 0.001007140329448930061 1.68588186734973822
0.001267914553963578328 2.41980601752275071 0.001267914553963578328 2.00858651605222427
0.001596209851982166583 2.92225069450025687 0.001596209851982166583 2.38290165953641253
0.002009509145210586212 3.51715477288302880 0.002009509145210586212 2.81474614341858187
0.002529822128153114136 4.21846242379923009 0.002529822128153114136 3.31035352383413572
0.003184857364431081805 5.04158928824710806 0.003184857364431081805 3.87629831812904202
0.004009497869020606231 6.00350539135292927 0.004009497869020606231 4.51955559240094651
0.005047658755856332391 7.12283590843755920 0.005047658755856332391 5.24759815809534569
0.006354625877790454069 8.41998851742338239 0.006354625877790454069 6.06852733628023433
0.007999999999995566213 9.91731393064372924 0.007999999999995566213 6.99122732823866411
0.010071403294347192059 11.63930369895128791 0.010071403294347192059 8.02554864087801612
0.012679145539706837553 13.61283431558241830 0.012679145539706837553 9.18257064428794223
0.015962098519764822413 15.86748466397498447 0.015962098519764822413 10.47500740307842193
0.020095091452077440408 18.43596521402798416 0.020095091452077440408 11.91767553066035212
0.025298221281346400247 21.35464837022743367 0.025298221281346400247 13.52759699203954824
0.031848573644282396344 24.66404143387159564 0.031848573644282396344 15.32302461262091064
0.040094978690177640601 28.40886332922998392 0.040094978690177640601 17.32088161633092938
0.050476587558421215363 32.63733212177492504 0.050476587558421215363 19.53290009978067587
0.063546258777947173257 37.39945557653903307 0.063546258777947173257 21.96197586382919908
0.079999999999998294697 42.74463032791776840 0.079999999999998294697 24.60059288383854081
0.100714032943528764008 48.71919472794542116 0.100714032943528764008 27.43164736953579208
0.126791455396883634421 55.36439198876815482 0.126791455396883634421 30.43294883702202114
0.159620985197506115583 62.71597430148615615 0.159620985197506115583 33.58476314312064659
0.200950914520774404082 70.80560837766880411 0.200950914520774404082 36.87083273189495713
0.252982212813464002465 79.66091112470660107 0.252982212813464002465 40.28605721185182631
0.318485736442795541734 89.31032925543100021 0.318485736442795541734 43.84730160151531919
0.400949786901833249431 99.78805779930343078 0.400949786901833249431 47.56844081662947588
0.504765875584169521062 111.12735347050066537 0.504765875584169521062 51.48990610520656475
0.635462587779429100010 123.37883251974785992 0.635462587779429100010 55.65803184923123581
0.800000000000011368684 136.59413323348206859 0.800000000000011368684 60.13752875207340054
1.007140329435344483500 150.84953556492615689 1.007140329435344483500 64.99533309280205629
1.267914553968893187630 166.22192526234667298 1.267914553968893187630 70.27822379605323988
1.596209851975103788391 182.80155551435035477 1.596209851975103788391 76.02155662945541792
2.009509145207672986544 200.67154652494377842 2.009509145207672986544 82.18562510305578428
2.529822128134725289783 219.89111246274609357 2.529822128134725289783 88.65449601584121808
3.184857364427998049905 240.47439179908872120 3.184857364427998049905 95.22944331341905411
4.009497869018190385759 262.37094403000588727 4.009497869018190385759 101.64799598228259470
5.009497869018204596614 284.67518198282982667 5.009497869018204596614 107.43099218557449603
6.009497869018190385759 303.59633875471985220 6.009497869018190385759 111.67844924481558166
7.009497869018190385759 319.98104941531011036 7.009497869018190385759 114.79684720905000006
8.009497869018204596614 334.37571596628566795 8.009497869018204596614 117.04734132306879246
9.009497869018190385759 347.16426549934908508 9.009497869018190385759 118.60440381507299890
10.009497869018190385759 358.63237483589961130 10.009497869018190385759 119.61441019283364540
11.009497869018204596614 368.99017935019713832 11.009497869018204596614 120.32955640049979706
12.009497869018190385759 378.40285611460814152 12.009497869018190385759 120.70383950567466513
13.009497869018190385759 387.00065376246266169 13.009497869018190385759 120.80285082764719107
14.009497869018204596614 394.88897529337981496 14.009497869018204596614 120.67512110774644896
15.009497869018190385759 402.15455578612454701 15.009497869018190385759 120.32664977160463593
16.009497869018190385759 408.86994376192825484 16.009497869018190385759 119.77029933219536417
17.009497869018190385759 415.08898570944649009 17.009497869018190385759 118.92260269754704893
18.009497869018204596614 420.86092858758530610 18.009497869018204596614 117.94170424918239348
19.009497869018190385759 426.22665387490513922 19.009497869018190385759 116.65292602368305097
20.009497869018190385759 431.21965941489679608 20.009497869018190385759 115.38461702884775661
21.009497869018204596614 435.86962699611950711 21.009497869018204596614 114.03055530584911992
22.009497869018190385759 440.20931225125906394 22.009497869018190385759 112.61125739434892523
23.009497869018190385759 444.27244037298652302 23.009497869018190385759 111.09178126948071963
24.009497869018204596614 448.08166680230738166 24.009497869018204596614 109.56774747068644160
25.009497869018190385759 451.65748918793281064 25.009497869018190385759 107.96126837042862689
26.009497869018190385759 455.01847991547543870 26.009497869018190385759 106.11391750397264389
27.009497869018204596614 458.17981801083436721 27.009497869018204596614 104.22548131328764498
28.009497869018190385759 461.14587980969298542 28.009497869018190385759 102.26048364393398060
29.009497869018190385759 463.92412292430202569 29.009497869018190385759 100.26924487569877442
30.009497869018190385759 466.52929759959158673 30.009497869018190385759 98.27379051501701213
31.009497869018190385759 468.96762483296953405 31.009497869018190385759 96.22416948602105435
32.009497869018190385759 471.26033537295535325 32.009497869018190385759 94.16620146303328909
33.009497869018190385759 473.42446217195657709 33.009497869018190385759 92.14272086261532024
34.009497869018190385759 475.46852742960959404 34.009497869018190385759 90.10241871401535718
35.009497869018190385759 477.39794653411235004 35.009497869018190385759 87.98026345759376454
36.009497869018190385759 479.22003425238284535 36.009497869018190385759 86.00565195218004533
37.009497869018190385759 480.93902604916502241 37.009497869018190385759 84.04464145174772227
38.009497869018190385759 482.55884674273056589 38.009497869018190385759 82.06651010943912183
39.009497869018190385759 484.08310043137117873 39.009497869018190385759 80.04825860003555249
40.009497869018190385759 485.52056986147243833 40.009497869018190385759 77.95028865550474961
41.009497869018190385759 486.87682207813497826 41.009497869018190385759 76.01131896122272735
42.009497869018190385759 488.15694910533420625 42.009497869018190385759 74.02252018645683052
43.009497869018190385759 489.36592357177062240 43.009497869018190385759 72.09946878412303306
44.009497869018190385759 490.50814633491791028 44.009497869018190385759 70.16151903625046771
46.009497869018190385759 492.60797944276515636 46.009497869018190385759 66.42325710638260716
48.009497869018190385759 494.48480604583477316 48.009497869018190385759 62.84991956626632970
50.009497869018218807469 496.16274393631698558 50.009497869018218807469 59.39054319223987477
52.009497869018190385759 497.66488770585652901 52.009497869018190385759 56.06287117331313397
54.009497869018190385759 499.01018061314084662 54.009497869018190385759 52.89380026238976029
56.009497869018190385759 500.21615221219468594 56.009497869018190385759 49.85606447590593859
58.009497869018190385759 501.29758578938918845 58.009497869018190385759 46.96267446328503326
60.009497869018190385759 502.26846290730412647 60.009497869018190385759 44.20998848874942411
62.009497869018190385759 503.14000169412054220 62.009497869018190385759 41.58746660294246311
64.009497869018190385759 503.92371179293644445 64.009497869018190385759 39.09454711269862770
66.009497869018218807469 504.62819295971314659 66.009497869018218807469 36.75408165383907999
68.009497869018190385759 505.26193945958459608 68.009497869018190385759 34.54158695955701575
70.009497869018190385759 505.83242685791486792 70.009497869018190385759 32.41948743316766013
72.009497869018190385759 506.34577876673000674 72.009497869018190385759 30.44464704231285523
74.009497869018218807469 506.80832534984455151 74.009497869018218807469 28.56284863860883050
76.009497869018190385759 507.22523159466015841 76.009497869018190385759 26.78332441317935420
78.009497869018190385759 507.60105802071575454 78.009497869018190385759 25.09743395569914526
80.009497869018218807469 507.94004533191997552 80.009497869018218807469 23.51508055083063198
82.009497869018190385759 508.24573836665564386 82.009497869018190385759 22.01187235259089192
84.009497869018190385759 508.52131735433141557 84.009497869018190385759 20.54593829517462922
86.009497869018218807469 508.77001683206771077 86.009497869018218807469 19.20360585677896381
88.009497869018190385759 508.99445772008880340 88.009497869018190385759 17.89526627915402557
91.009497869018190385759 509.29070995987137849 91.009497869018190385759 16.08513832474625005
94.009497869018190385759 509.54501191277608996 94.009497869018190385759 14.40148448414809756
97.009497869018190385759 509.76276844607542671 97.009497869018190385759 12.88025333968620245
99.504748934509137825444 509.91989252266216681 99.504748934509137825444 10.94679410035891109
nan nan nan nan

