Time Pressure difference Time.1 Pressure.1 difference.1
(hr) (psi) (hr) (psi)
0.000200000000006639311 0.67395841020631042 0.000200000000006639311 0.54021330337722584
0.000399999999999067768 1.26027414871590060 0.000399999999999067768 1.15154119475236150
0.000600000000019917934 1.79967906508895403 0.000600000000019917934 1.58082045354168454
0.000799999999998135536 2.30557506941677293 0.000799999999998135536 1.97921865127044860
0.001007140329448930061 2.80197348278329139 0.001007140329448930061 2.36512122839789374
0.001267914553963578328 3.39474235501742427 0.001267914553963578328 2.81784311237471519
0.001596209851982166583 4.09962126416847639 0.001596209851982166583 3.34296928468296706
0.002009509145210586212 4.93421133355184338 0.002009509145210586212 3.94880328525969171
0.002529822128153114136 5.91807482063428125 0.002529822128153114136 4.64409016097310623
0.003184857364431081805 7.07283830583072515 0.003184857364431081805 5.43805329267958459
0.004009497869020606231 8.42230901279657296 0.004009497869020606231 6.34047799049871941
0.005047658755856332391 9.99261617299645977 0.005047658755856332391 7.36184785077723891
0.006354625877790454069 11.81238968821135416 0.006354625877790454069 8.51352820510038732
0.007999999999995566213 13.91298534038134527 0.007999999999995566213 9.80798268657250460
0.010071403294347192059 16.32876229070267726 0.010071403294347192059 11.25903055705785505
0.012679145539706837553 19.09742553258518782 0.012679145539706837553 12.88221504879815704
0.015962098519764822413 22.26047123873591715 0.015962098519764822413 14.69537270460856782
0.020095091452077440408 25.86378887996969667 0.020095091452077440408 16.71928972996988705
0.025298221281346400247 29.95840524982631337 0.025298221281346400247 18.97784621491924995
0.031848573644282396344 34.60114798259088076 0.031848573644282396344 21.49664902176382597
0.040094978690177640601 39.85475319231104407 0.040094978690177640601 24.29943971682368087
0.050476587558421215363 45.78686593315670450 0.050476587558421215363 27.40267724143144079
0.063546258777947173257 52.46764202621707085 0.063546258777947173257 30.81042411041545748
0.079999999999998294697 59.96637993829624236 0.079999999999998294697 34.51213610370392360
0.100714032943528764008 68.34808767630603654 0.100714032943528764008 38.48381833871108171
0.126791455396883634421 77.67062528279359412 0.126791455396883634421 42.69433981773524067
0.159620985197506115583 87.98414945483855831 0.159620985197506115583 47.11601553991418712
0.200950914520774404082 99.33308537620781919 0.200950914520774404082 51.72603780358597447
0.252982212813464002465 111.75617676625505226 0.252982212813464002465 56.51725127691676676
0.318485736442795541734 125.29333147718436692 0.318485736442795541734 61.51331586995193135
0.400949786901833249431 139.99252166626916960 0.400949786901833249431 66.73369668188018977
0.504765875584169521062 155.90040312962992175 0.504765875584169521062 72.23511465194197001
0.635462587779429100010 173.08798533205208514 0.635462587779429100010 78.08257221747223298
0.800000000000011368684 191.62771155074005947 0.800000000000011368684 84.36685193044500863
1.007140329435344483500 211.62659482151957491 1.007140329435344483500 91.18185859975707785
1.267914553968893187630 233.19249804920519864 1.267914553968893187630 98.59321831098483813
1.596209851975103788391 256.45203730129145470 1.596209851975103788391 106.65053161929397163
2.009509145207672986544 281.52182179151532182 2.009509145207672986544 115.29809434747535590
2.529822128134725289783 308.48492299121477345 2.529822128134725289783 124.37326397584682525
3.184857364427998049905 337.36117574133027119 3.184857364427998049905 133.59724801070962030
4.009497869018190385759 368.07981713195027851 4.009497869018190385759 142.60182624760804515
5.009497869018204596614 399.37040023098444408 5.009497869018204596614 150.71478324005232707
6.009497869018190385759 425.91486364430255662 6.009497869018190385759 156.67353459272678151
7.009497869018190385759 448.90095048408727507 7.009497869018190385759 161.04833057733389978
8.009497869018204596614 469.09520732661519560 8.009497869018204596614 164.20554550830522089
9.009497869018190385759 487.03624493242017479 9.009497869018190385759 166.38994622172558024
10.009497869018190385759 503.12483890021866273 10.009497869018190385759 167.80688270530865225
11.009497869018204596614 517.65578784201568396 11.009497869018204596614 168.81016028359971415
12.009497869018190385759 530.86081843324734564 12.009497869018190385759 169.33524150941025255
13.009497869018190385759 542.92265629284611350 13.009497869018190385759 169.47414434951085127
14.009497869018204596614 553.98917113621973840 14.009497869018204596614 169.29495251057764449
15.009497869018190385759 564.18204347966457135 15.009497869018190385759 168.80608257813520368
16.009497869018190385759 573.60305153847320980 16.009497869018190385759 168.02557935299290648
17.009497869018190385759 582.32773647354224522 17.009497869018190385759 166.83634697279063630
18.009497869018204596614 590.42518677214866329 18.009497869018204596614 165.46024596117180749
19.009497869018190385759 597.95275500131617719 19.009497869018190385759 163.65222085641332228
20.009497869018190385759 604.95743523713053946 20.009497869018190385759 161.87291200568787986
21.009497869018204596614 611.48086801774456944 21.009497869018204596614 159.97330077690136818
22.009497869018190385759 617.56900617278085974 22.009497869018190385759 157.98216979381123792
23.009497869018190385759 623.26916272616074366 23.009497869018190385759 155.85049894037291551
24.009497869018204596614 628.61312096323695187 24.009497869018204596614 153.71243413278909884
25.009497869018190385759 633.62963700567968317 25.009497869018190385759 151.45870693126795459
26.009497869018190385759 638.34476602634811115 26.009497869018190385759 148.86706107803698274
27.009497869018204596614 642.77980265867768139 27.009497869018204596614 146.21777668298904018
28.009497869018190385759 646.94088645765623369 28.009497869018190385759 143.46108430047550542
29.009497869018190385759 650.83847969670193834 29.009497869018190385759 140.66757831837162485
30.009497869018190385759 654.49327547305028929 30.009497869018190385759 137.86815828773399062
31.009497869018190385759 657.91400121494859832 31.009497869018190385759 134.99274791662085704
32.009497869018190385759 661.13044150872576665 32.009497869018190385759 132.10562755973367643
33.009497869018190385759 664.16649185862900140 33.009497869018190385759 129.26688955798789493
34.009497869018190385759 667.03410804617692520 34.009497869018190385759 126.40455263067660496
35.009497869018190385759 669.74088731162430577 35.009497869018190385759 123.42738409703009950
36.009497869018190385759 672.29709153087912910 36.009497869018190385759 120.65720447784100600
37.009497869018190385759 674.70866263129244089 37.009497869018190385759 117.90610568882868847
38.009497869018190385759 676.98110673472922372 38.009497869018190385759 115.13098809556096569
39.009497869018190385759 679.11948002545977943 39.009497869018190385759 112.29958597802090026
40.009497869018190385759 681.13610380565989999 40.009497869018190385759 109.35634698337479165
41.009497869018190385759 683.03878807483283708 41.009497869018190385759 106.63616920936753729
42.009497869018190385759 684.83467642603397962 42.009497869018190385759 103.84608629056552331
43.009497869018190385759 686.53074495286080037 43.009497869018190385759 101.14824026526245859
44.009497869018190385759 688.13316761188491455 44.009497869018190385759 98.42949337259486242
46.009497869018190385759 691.07902043564740779 46.009497869018190385759 93.18509112895415569
48.009497869018190385759 693.71201775705515047 48.009497869018190385759 88.17206107267507775
50.009497869018218807469 696.06599439181854905 50.009497869018218807469 83.31890697114232580
52.009497869018190385759 698.17334970908564173 52.009497869018190385759 78.65052071850305992
54.009497869018190385759 700.06065917901503326 54.009497869018190385759 74.20463573042503924
56.009497869018190385759 701.75251498754266777 56.009497869018190385759 69.94300059808253422
58.009497869018190385759 703.26965658569383777 58.009497869018190385759 65.88386794269551672
60.009497869018190385759 704.63169868734826196 60.009497869018190385759 62.02212877841949279
62.009497869018190385759 705.85437918827335579 62.009497869018190385759 58.34299662557724986
64.009497869018190385759 706.95384495009056991 64.009497869018190385759 54.84568348564098272
66.009497869018218807469 707.94216055797437548 66.009497869018218807469 51.56224788538583681
68.009497869018190385759 708.83124260417082496 68.009497869018190385759 48.45834228529157173
70.009497869018190385759 709.63157854849498563 70.009497869018190385759 45.48125193522650989
72.009497869018190385759 710.35175919738344419 72.009497869018190385759 42.71075121298382982
74.009497869018218807469 711.00066512847763534 74.009497869018218807469 40.07077895967151449
76.009497869018190385759 711.58554229511742051 76.009497869018190385759 37.57428700283712431
78.009497869018190385759 712.11278864355494989 78.009497869018190385759 35.20915372335763749
80.009497869018218807469 712.58835345115733162 80.009497869018218807469 32.98927242493341083
82.009497869018190385759 713.01720976655462891 82.009497869018190385759 30.88042382218548099
84.009497869018190385759 713.40381912897510119 84.009497869018190385759 28.82386705757831891
86.009497869018218807469 713.75271926585730853 86.009497869018218807469 26.94071082516237325
88.009497869018190385759 714.06758706238542800 88.009497869018190385759 25.10524312785666723
91.009497869018190385759 714.48319890022537493 91.009497869018190385759 22.56581724399183742
94.009497869018190385759 714.83995874140180149 94.009497869018190385759 20.20382171109472580
97.009497869018190385759 715.14544906637831900 97.009497869018190385759 18.06968874321194818
99.504748934509137825444 715.36587820570582608 99.504748934509137825444 15.35724157847453242
nan nan nan nan

