Time Pressure difference Time.1 Pressure.1 difference.1
(hr) (psi) (hr) (psi)
0.000200000000006639311 0.74288597488650121 0.000200000000006639311 0.59546239122262401
0.000399999999999067768 1.38916582301639058 0.000399999999999067768 1.26931245330658049
0.000600000000019917934 1.98373715129123318 0.000600000000019917934 1.74249527265390203
0.000799999999998135536 2.54137251969803346 0.000799999999998135536 2.18163874060492624
0.001007140329448930061 3.08853895261340039 0.001007140329448930061 2.60700862675676914
0.001267914553963578328 3.74193191405329673 0.001267914553963578328 3.10603161250394733
0.001596209851982166583 4.51890071164025198 0.001596209851982166583 3.68486387061645226
0.002009509145210586212 5.43884658357419148 0.002009509145210586212 4.35265816670670525
0.002529822128153114136 6.52333247274460515 0.002529822128153114136 5.11905392743626564
0.003184857364431081805 7.79619676892705016 0.003184857364431081805 5.99421783397635988
0.004009497869020606231 9.28368152546894976 0.004009497869020606231 6.98893596679972440
0.005047658755856332391 11.01458828159836933 0.005047658755856332391 8.11476410824309369
0.006354625877790454069 13.02047499723297186 0.006354625877790454069 9.38422995334929055
0.007999999999995566213 15.33590429564762125 0.007999999999995566213 10.81107182497196284
0.010071403294347192059 17.99874934316090247 0.010071403294347192059 12.41052231857513455
0.012679145539706837553 21.05057132569049116 0.012679145539706837553 14.19971431515251403
0.015962098519764822413 24.53711034269754521 0.015962098519764822413 16.19830854939808162
0.020095091452077440408 28.50894910633023471 0.020095091452077440408 18.42921708871680764
0.025298221281346400247 33.02233305946764119 0.025298221281346400247 20.91876230508144374
0.031848573644282396344 38.13990175353767142 0.031848573644282396344 23.69516994444422053
0.040094978690177640601 43.93080749607013757 0.040094978690177640601 26.78460968786246355
0.050476587558421215363 50.46961358541136633 0.050476587558421215363 30.20522377748692833
0.063546258777947173257 57.83365086980745673 0.063546258777947173257 33.96149021261703638
0.079999999999998294697 66.09930515925836403 0.079999999999998294697 38.04178638703727700
0.100714032943528764008 75.33823300683732782 0.100714032943528764008 42.41966339607925818
0.126791455396883634421 85.61421195944292606 0.126791455396883634421 47.06080639000361288
0.159620985197506115583 96.98252837635612877 0.159620985197506115583 51.93469894740540838
0.200950914520774404082 109.49215092604725896 0.200950914520774404082 57.01620076077090005
0.252982212813464002465 123.18578575371294903 0.252982212813464002465 62.29742470296508117
0.318485736442795541734 138.10742219644183137 0.318485736442795541734 67.80445044756064021
0.400949786901833249431 154.30993865486487948 0.400949786901833249431 73.55873384252701896
0.504765875584169521062 171.84476254061482337 0.504765875584169521062 79.62279683225422389
0.635462587779429100010 190.79016565010289241 0.635462587779429100010 86.06828983062280258
0.800000000000011368684 211.22600023206575770 0.800000000000011368684 92.99527996878597946
1.007140329435344483500 233.27022383735683775 1.007140329435344483500 100.50727595655042990
1.267914553968893187630 257.04173080423748843 1.267914553968893187630 108.67661563824464110
1.596209851975103788391 282.68008657074176426 1.596209851975103788391 117.55797235308541815
2.009509145207672986544 310.31382629292028241 2.009509145207672986544 127.08994490573986980
2.529822128134725289783 340.03451738804363913 2.529822128134725289783 137.09325688246750019
3.184857364427998049905 371.86402326032992960 3.184857364427998049905 147.26060292089584891
4.009497869018190385759 405.72434388408163386 4.009497869018190385759 157.18610393202249043
5.009497869018204596614 440.21510025460787574 5.009497869018204596614 166.12879516233041954
6.009497869018190385759 469.47433833519716018 6.009497869018190385759 172.69696426698294545
7.009497869018190385759 494.81127496541444089 7.009497869018190385759 177.51918256819760700
8.009497869018204596614 517.07085353047364151 8.009497869018204596614 180.99929448074553306
9.009497869018190385759 536.84676998232680489 9.009497869018190385759 183.40709981258390826
10.009497869018190385759 554.58078833319552814 10.009497869018190385759 184.96895025471522445
11.009497869018204596614 570.59785705313095150 11.009497869018204596614 186.07483576714966489
12.009497869018190385759 585.15340213664762814 12.009497869018190385759 186.65361848196360484
13.009497869018190385759 598.44883705006907348 13.009497869018190385759 186.80672729434718349
14.009497869018204596614 610.64715454787858562 14.009497869018204596614 186.60920901734127142
15.009497869018190385759 621.88247974463024548 15.009497869018190385759 186.07034102362629824
16.009497869018190385759 632.26699999127163210 16.009497869018190385759 185.21001360500355304
17.009497869018190385759 641.88398224924549140 17.009497869018190385759 183.89915518591695331
18.009497869018204596614 650.80958087384578903 18.009497869018204596614 182.38231657083710502
19.009497869018190385759 659.10701403554173794 19.009497869018190385759 180.38937980763742530
20.009497869018190385759 666.82808202274623000 20.009497869018190385759 178.42809618808777827
21.009497869018204596614 674.01868406501387199 21.009497869018204596614 176.33420653817535140
22.009497869018190385759 680.72947271317889317 22.009497869018190385759 174.13943715908737886
23.009497869018190385759 687.01259982315445995 23.009497869018190385759 171.78975451382018491
24.009497869018204596614 692.90309924356802185 24.009497869018204596614 169.43302398727891500
25.009497869018190385759 698.43266806307860861 25.009497869018190385759 166.94880195832945446
26.009497869018190385759 703.63002618813368372 26.009497869018190385759 164.09210141556349072
27.009497869018204596614 708.51864611240614522 27.009497869018204596614 161.17186748011292252
28.009497869018190385759 713.10529529991651998 28.009497869018190385759 158.13324064938774427
29.009497869018190385759 717.40150602931919366 29.009497869018190385759 155.05403519184145011
30.009497869018190385759 721.43008773733947692 30.009497869018190385759 151.96831083988863043
31.009497869018190385759 725.20066043011388501 31.009497869018190385759 148.79882440809342370
32.009497869018190385759 728.74605484484538920 32.009497869018190385759 145.61643037834278402
33.009497869018190385759 732.09261034417056635 33.009497869018190385759 142.48736689914571230
34.009497869018190385759 735.25350545999037877 34.009497869018190385759 139.33229096790489621
35.009497869018190385759 738.23711442304045249 35.009497869018190385759 136.05063928877180501
36.009497869018190385759 741.05474861926450103 36.009497869018190385759 132.99714584489291269
37.009497869018190385759 743.71295767312915359 37.009497869018190385759 129.96468467973161864
38.009497869018190385759 746.21781083259918432 38.009497869018190385759 126.90574824169786439
39.009497869018190385759 748.57488139170004615 39.009497869018190385759 123.78477090759120927
40.009497869018190385759 750.79775078578416014 40.009497869018190385759 120.54051883394720335
41.009497869018190385759 752.89502776430447284 41.009497869018190385759 117.54214106032557652
42.009497869018190385759 754.87458651506028673 42.009497869018190385759 114.46670875210064366
43.009497869018190385759 756.74411659576696820 43.009497869018190385759 111.49294665602792520
44.009497869018190385759 758.51042339037303464 44.009497869018190385759 108.49614610388297820
46.009497869018190385759 761.75755661656592110 46.009497869018190385759 102.71538453986991613
48.009497869018190385759 764.65983775493577923 48.009497869018190385759 97.18965822783502517
50.009497869018218807469 767.25456200007272400 50.009497869018218807469 91.84015882046369939
52.009497869018190385759 769.57744229296940830 52.009497869018190385759 86.69432397380450084
54.009497869018190385759 771.65777204959601931 54.009497869018190385759 81.79374620285487651
56.009497869018190385759 773.52265856581414027 56.009497869018190385759 77.09626202288643526
58.009497869018190385759 775.19496237286705309 58.009497869018190385759 72.62199080047119537
60.009497869018190385759 776.69630423491810234 60.009497869018190385759 68.36530103984875950
62.009497869018190385759 778.04403160525589556 62.009497869018190385759 64.30989400773856346
64.009497869018190385759 779.25594272907710547 64.009497869018190385759 60.45490111485425899
66.009497869018218807469 780.34533606958541441 66.009497869018218807469 56.83565960093665836
68.009497869018190385759 781.32534696141556196 68.009497869018190385759 53.41430910992366421
70.009497869018190385759 782.20753544550018432 70.009497869018190385759 50.13274361042013538
72.009497869018190385759 783.00137093347950668 72.009497869018190385759 47.07889622340263003
74.009497869018218807469 783.71664224389019182 74.009497869018218807469 44.16892680781973723
76.009497869018190385759 784.36133639348179258 76.009497869018190385759 41.41711180994546737
78.009497869018190385759 784.94250566391849588 78.009497869018190385759 38.81008989961012645
80.009497869018218807469 785.46670778138923197 80.009497869018218807469 36.36317528657433229
82.009497869018190385759 785.93942440177045228 82.009497869018190385759 34.03864898581809229
84.009497869018190385759 786.36557335807469826 84.009497869018190385759 31.77176255210337530
86.009497869018218807469 786.75015646350175302 86.009497869018218807469 29.69601079591761206
88.009497869018190385759 787.09722664831133443 88.009497869018190385759 27.67282481138746064
91.009497869018190385759 787.55534424229381329 91.009497869018190385759 24.87368491667282200
94.009497869018190385759 787.94859088540886205 94.009497869018190385759 22.27012165882032235
97.009497869018190385759 788.28532453907610034 97.009497869018190385759 19.91772509194953500
99.504748934509137825444 788.52829756765288494 99.504748934509137825444 16.92786855809124447
nan nan nan nan

