Time Pressure difference Time.1 Pressure.1 difference.1
(hr) (psi) (hr) (psi)
0.000200000000006639311 0.47483433446353684 0.000200000000006639311 0.38060482737940909
0.000399999999999067768 0.88792042295893003 0.000399999999999067768 0.81131311448461840
0.000600000000019917934 1.26795570494903576 0.000600000000019917934 1.11375986499527757
0.000799999999998135536 1.62438243527090798 0.000799999999998135536 1.39444950430417958
0.001007140329448930061 1.97411768105186414 0.001007140329448930061 1.66633541091669790
0.001267914553963578328 2.39175029558045749 0.001267914553963578328 1.98529855644582209
0.001596209851982166583 2.88836952702779026 0.001596209851982166583 2.35527381420845394
0.002009509145210586212 3.47637616682061701 0.002009509145210586212 2.78211140552387359
0.002529822128153114136 4.16955271453778931 0.002529822128153114136 3.27197261341287060
0.003184857364431081805 4.98313607910801171 0.003184857364431081805 3.83135572893334375
0.004009497869020606231 5.93389953174304008 0.004009497869020606231 4.46715494785137057
0.005047658755856332391 7.04025230370205080 0.005047658755856332391 5.18675644032032679
0.006354625877790454069 8.32236546214890893 0.006354625877790454069 5.99816759904799923
0.007999999999995566213 9.80233058072322017 0.007999999999995566213 6.91016962008517321
0.010071403294347192059 11.50435525026779260 0.010071403294347192059 7.93249880156348919
0.012679145539706837553 13.45500435250320059 0.012679145539706837553 9.07610605710779161
0.015962098519764822413 15.68351382729121468 0.015962098519764822413 10.35355804188330886
0.020095091452077440408 18.22221489270592443 0.020095091452077440408 11.77949958247878293
0.025298221281346400247 21.10705824419581234 0.025298221281346400247 13.37075528778401612
0.031848573644282396344 24.37808153318902527 0.031848573644282396344 15.14536635624269678
0.040094978690177640601 28.07948520367369483 0.040094978690177640601 17.12005980048941112
0.050476587558421215363 32.25892827108767591 0.050476587558421215363 19.30643169282669547
0.063546258777947173257 36.96583870028930363 0.063546258777947173257 21.70734425961088832
0.079999999999998294697 42.24904041107235031 0.079999999999998294697 24.31536861851867215
0.100714032943528764008 48.15433449921561504 0.100714032943528764008 27.11359928409189735
0.126791455396883634421 54.72248599469548225 0.126791455396883634421 30.08010305340436830
0.159620985197506115583 61.98883257045443429 0.159620985197506115583 33.19537458493953608
0.200950914520774404082 69.98467378778278203 0.200950914520774404082 36.44334481616284194
0.252982212813464002465 78.73730635804334099 0.252982212813464002465 39.81897249055499799
0.318485736442795541734 88.27484717710716211 0.318485736442795541734 43.33892709019340117
0.400949786901833249431 98.63109481032599035 0.400949786901833249431 47.01692266223376748
0.504765875584169521062 109.83892038678472147 0.504765875584169521062 50.89292168659547144
0.635462587779429100010 121.94835330212760027 0.635462587779429100010 55.01272133503725570
0.800000000000011368684 135.01043313802142620 0.800000000000011368684 59.44028204190443887
1.007140329435344483500 149.10055544243425629 1.007140329435344483500 64.24176401346521459
1.267914553968893187630 164.29471453466729258 1.267914553968893187630 69.46340381001203923
1.596209851975103788391 180.68211718954628964 1.596209851975103788391 75.14014727722984333
2.009509145207672986544 198.34491989856761052 2.009509145207672986544 81.23274829026672705
2.529822128134725289783 217.34165028926497598 2.529822128134725289783 87.62661780116481225
3.184857364427998049905 237.68628290866450925 3.184857364427998049905 94.12533382572722473
4.009497869018190385759 259.32896207023776469 4.009497869018190385759 100.46946849263294155
5.009497869018204596614 281.37460016273905694 5.009497869018204596614 106.18541546458232006
6.009497869018190385759 300.07638120394045700 6.009497869018190385759 110.38362664487570441
7.009497869018190385759 316.27112420469785548 7.009497869018190385759 113.46586927039436432
8.009497869018204596614 330.49889607102437594 8.009497869018204596614 115.69027069903322058
9.009497869018190385759 343.13917256602326233 9.009497869018190385759 117.22928029257940352
10.009497869018190385759 354.47431831606314745 10.009497869018190385759 118.22757645146745631
11.009497869018204596614 364.71203234323837705 11.009497869018204596614 118.93443110889980119
12.009497869018190385759 374.01557662342429467 12.009497869018190385759 119.30437469981177401
13.009497869018190385759 382.51368966086891987 13.009497869018190385759 119.40223806442809007
14.009497869018204596614 390.31055239142762048 14.009497869018204596614 119.27598926881606189
15.009497869018190385759 397.49189426976369077 15.009497869018190385759 118.93155818004980517
16.009497869018190385759 404.12942267483339265 16.009497869018190385759 118.38165818051773215
17.009497869018190385759 410.27635978817750129 17.009497869018190385759 117.54378991264795218
18.009497869018204596614 415.98138158946835574 18.009497869018204596614 116.57426419991649880
19.009497869018190385759 421.28489556910915326 19.009497869018190385759 115.30042833065485297
20.009497869018190385759 426.22001118979659395 20.009497869018190385759 114.04682436764373676
21.009497869018204596614 430.81606610341088981 21.009497869018204596614 112.70846191099869316
22.009497869018190385759 435.10543616718649673 22.009497869018190385759 111.30561962745791504
23.009497869018190385759 439.12145555706786126 23.009497869018190385759 109.80376061708093971
24.009497869018204596614 442.88651704228061590 24.009497869018204596614 108.29739677537413911
25.009497869018190385759 446.42088061763786300 25.009497869018190385759 106.70954351975697705
26.009497869018190385759 449.74290333674525755 26.009497869018190385759 104.88361121407152154
27.009497869018204596614 452.86758823679565467 27.009497869018204596614 103.01706993574228477
28.009497869018190385759 455.79926091334868943 28.009497869018190385759 101.07485484806227305
29.009497869018190385759 458.54529251358547981 29.009497869018190385759 99.10670290612546296
30.009497869018190385759 461.12026226510363358 30.009497869018190385759 97.13438424817623229
31.009497869018190385759 463.53031903780470202 31.009497869018190385759 95.10852694125559026
32.009497869018190385759 465.79644742660218526 32.009497869018190385759 93.07441941708508182
33.009497869018190385759 467.93548290039768744 33.009497869018190385759 91.07439946130963904
34.009497869018190385759 469.95584885071554027 34.009497869018190385759 89.05775298979487786
35.009497869018190385759 471.86289787864438949 35.009497869018190385759 86.96020243199846789
36.009497869018190385759 473.66385994221025157 36.009497869018190385759 85.00848497302433771
37.009497869018190385759 475.36292139931958900 37.009497869018190385759 83.07021082622020458
38.009497869018190385759 476.96396156310470360 38.009497869018190385759 81.11501434005431577
39.009497869018190385759 478.47054274521030948 39.009497869018190385759 79.12016284815108236
40.009497869018190385759 479.89134586307852715 40.009497869018190385759 77.04651719283222633
41.009497869018190385759 481.23187341635951952 41.009497869018190385759 75.13002830659985420
42.009497869018190385759 482.49715839106943349 42.009497869018190385759 73.16428806835298815
43.009497869018190385759 483.69211576224279270 43.009497869018190385759 71.26353291416216962
44.009497869018190385759 484.82109536291886798 44.009497869018190385759 69.34805214887364855
46.009497869018190385759 486.89658257966067367 46.009497869018190385759 65.65313238630861292
48.009497869018190385759 488.75164887428883276 48.009497869018190385759 62.12122484665743372
50.009497869018218807469 490.41013241241768128 50.009497869018218807469 58.70195718421390296
52.009497869018190385759 491.89486002231035400 52.009497869018190385759 55.41286686985442600
54.009497869018190385759 493.22455533066960243 54.009497869018190385759 52.28053881007219417
56.009497869018190385759 494.41654465031416521 56.009497869018190385759 49.27802314864905497
58.009497869018190385759 495.48543986719334953 58.009497869018190385759 46.41817968689911567
60.009497869018190385759 496.44506043881358437 60.009497869018190385759 43.69740891206827627
62.009497869018190385759 497.30649442810175742 62.009497869018190385759 41.10529307711124147
64.009497869018190385759 498.08111803301835607 64.009497869018190385759 38.64127700124705456
66.009497869018218807469 498.77743130220926560 66.009497869018218807469 36.32794737379456507
68.009497869018190385759 499.40383001657494333 68.009497869018190385759 34.14110479190997438
70.009497869018190385759 499.96770306825789021 70.009497869018190385759 32.04360931800049883
72.009497869018190385759 500.47510307088379022 72.009497869018190385759 30.09166562732951533
74.009497869018218807469 500.93228679506381695 74.009497869018218807469 28.23168517613220274
76.009497869018190385759 501.34435934428734072 76.009497869018190385759 26.47279311563524473
78.009497869018190385759 501.71582836250462378 78.009497869018190385759 24.80644921418378956
80.009497869018218807469 502.05088538604269388 80.009497869018218807469 23.24244193574853767
82.009497869018190385759 502.35303415370896118 82.009497869018190385759 21.75666223835795421
84.009497869018190385759 502.62541802268697211 84.009497869018190385759 20.30772451783926869
86.009497869018218807469 502.87123402821771379 86.009497869018218807469 18.98095535409166956
88.009497869018190385759 503.09307270304424264 88.009497869018190385759 17.68778493098992399
91.009497869018190385759 503.38589013424967789 91.009497869018190385759 15.89864396735788610
94.009497869018190385759 503.63724365871490818 94.009497869018190385759 14.23451075099855601
97.009497869018190385759 503.85247547858472217 97.009497869018190385759 12.73091706908114595
99.504748934509137825444 504.00777782674725813 99.504748934509137825444 10.81987474847069208
nan nan nan nan

