Time Pressure difference Time.1 Pressure.1 difference.1
(hr) (psi) (hr) (psi)
0.000200000000006639311 0.44559233732648623 0.000200000000006639311 0.35716582041469480
0.000399999999999067768 0.83323910658902534 0.000399999999999067768 0.76134955024949535
0.000600000000019917934 1.18987045625715981 0.000600000000019917934 1.04517054779615504
0.000799999999998135536 1.52434715333340343 0.000799999999998135536 1.30857431488955278
0.001007140329448930061 1.85254445142696911 0.001007140329448930061 1.56371651464323547
0.001267914553963578328 2.24445775538342085 0.001267914553963578328 1.86303676851220823
0.001596209851982166583 2.71049339779734000 0.001596209851982166583 2.21022762623667246
0.002009509145210586212 3.26228848499295454 0.002009509145210586212 2.61077903157665547
0.002529822128153114136 3.91277674091522742 0.002529822128153114136 3.07047283370122770
0.003184857364431081805 4.67625673112775253 0.003184857364431081805 3.59540713565592362
0.004009497869020606231 5.56846876879112340 0.004009497869020606231 4.19205156396609535
0.005047658755856332391 6.60668837884063453 0.005047658755856332391 4.86733742200148001
0.006354625877790454069 7.80984442195792017 0.006354625877790454069 5.62877897857876874
0.007999999999995566213 9.19866799364056043 0.007999999999995566213 6.48461665227934070
0.010071403294347192059 10.79587589467945463 0.010071403294347192059 7.44398714516221816
0.012679145539706837553 12.62639704633731341 0.012679145539706837553 8.51716697441200488
0.015962098519764822413 14.71766693470143395 0.015962098519764822413 9.71594889560896924
0.020095091452077440408 17.10002570576508774 0.020095091452077440408 11.05407585452554464
0.025298221281346400247 19.80721008252979587 0.025298221281346400247 12.54733634044247914
0.031848573644282396344 22.87679205460553788 0.031848573644282396344 14.21266051025707711
0.040094978690177640601 26.35025004450317354 0.040094978690177640601 16.06574526732144292
0.050476587558421215363 30.27230805497963928 0.050476587558421215363 18.11747255631830811
0.063546258777947173257 34.68935009997822760 0.063546258777947173257 20.37052833746476566
0.079999999999998294697 39.64719334763388048 0.079999999999998294697 22.81794122558937232
0.100714032943528764008 45.18881829838415598 0.100714032943528764008 25.44384683551145798
0.126791455396883634421 51.35247952581394060 0.126791455396883634421 28.22766268941172640
0.159620985197506115583 58.17133848253788386 0.159620985197506115583 31.15108465448872010
0.200950914520774404082 65.67476719088119808 0.200950914520774404082 34.19903325856923715
0.252982212813464002465 73.88838133306119005 0.252982212813464002465 37.36677770374662089
0.318485736442795541734 82.83856626590701921 0.318485736442795541734 40.66996090575334222
0.400949786901833249431 92.55703911819448138 0.400949786901833249431 44.12145235165633039
0.504765875584169521062 103.07464669727598050 0.504765875584169521062 47.75875348888725114
0.635462587779429100010 114.43833740962121226 0.635462587779429100010 51.62484113551882814
0.800000000000011368684 126.69600763685295419 0.800000000000011368684 55.77973681351735991
1.007140329435344483500 139.91840979935179234 1.007140329435344483500 60.28552634694683121
1.267914553968893187630 154.17685821435051707 1.267914553968893187630 65.18559888329575358
1.596209851975103788391 169.55506598432495480 1.596209851975103788391 70.51274817804561224
2.009509145207672986544 186.13013011009277875 2.009509145207672986544 76.23014502312420859
2.529822128134725289783 203.95697387848915128 2.529822128134725289783 82.23025717411358926
3.184857364427998049905 223.04871123393735388 3.184857364427998049905 88.32875901534519869
4.009497869018190385759 243.35855678145475167 4.009497869018190385759 94.28219917197226607
5.009497869018204596614 264.04654560726248747 5.009497869018204596614 99.64613767937342459
6.009497869018190385759 281.59660406234877428 6.009497869018190385759 103.58580799519127424
7.009497869018190385759 296.79401684898328995 7.009497869018190385759 106.47823509245218077
8.009497869018204596614 310.14559162090262134 8.009497869018204596614 108.56564992284641846
9.009497869018190385759 322.00743466606292031 9.009497869018190385759 110.00988179948801360
10.009497869018190385759 332.64452158692142802 10.009497869018190385759 110.94669930929497070
11.009497869018204596614 342.25176055670459618 11.009497869018204596614 111.61002332799981218
12.009497869018190385759 350.98235929470899919 12.009497869018190385759 111.95718446903157428
13.009497869018190385759 358.95712812750161902 13.009497869018190385759 112.04902105752782404
14.009497869018204596614 366.27383215617840051 14.009497869018204596614 111.93054711443149074
15.009497869018190385759 373.01292130886912446 15.009497869018190385759 111.60732732438691528
16.009497869018190385759 379.24168696758562191 16.009497869018190385759 111.09129213421019244
17.009497869018190385759 385.01007370151558007 17.009497869018190385759 110.30502279192769777
18.009497869018204596614 390.36375984935449424 18.009497869018204596614 109.39520394127060854
19.009497869018190385759 395.34066446368012748 19.009497869018190385759 108.19981544225674952
20.009497869018190385759 399.97185800802026279 20.009497869018190385759 107.02341289632256860
21.009497869018204596614 404.28487141669057792 21.009497869018204596614 105.76747158803395621
22.009497869018190385759 408.31008672580549046 22.009497869018190385759 104.45102135128016130
23.009497869018190385759 412.07878527349470232 23.009497869018190385759 103.04165219198210934
24.009497869018204596614 415.61198080214018091 24.009497869018204596614 101.62805562498452616
25.009497869018190385759 418.92868562358978579 25.009497869018190385759 100.13798805373087930
26.009497869018190385759 422.04612629841193439 26.009497869018190385759 98.42450319209056886
27.009497869018204596614 424.97838192309274064 27.009497869018204596614 96.67291020362911524
28.009497869018190385759 427.72951170754129180 28.009497869018190385759 94.85030366973586524
29.009497869018190385759 430.30643285732361392 29.009497869018190385759 93.00335756586554226
30.009497869018190385759 432.72282675904148164 30.009497869018190385759 91.15250134726214526
31.009497869018190385759 434.98446361318917752 31.009497869018190385759 89.25140358123691442
32.009497869018190385759 437.11103570824843700 32.009497869018190385759 87.34256367585696523
33.009497869018190385759 439.11834172471333204 33.009497869018190385759 85.46571210445479494
34.009497869018190385759 441.01428631152191429 34.009497869018190385759 83.57325793763743604
35.009497869018190385759 442.80389243743758243 35.009497869018190385759 81.60488204762320663
36.009497869018190385759 444.49394481380437583 36.009497869018190385759 79.77335833245686558
37.009497869018190385759 446.08837198763131937 37.009497869018190385759 77.95445004220077578
38.009497869018190385759 447.59081437006892656 38.009497869018190385759 76.11966155078410168
39.009497869018190385759 449.00461489286601591 39.009497869018190385759 74.24766015075761061
40.009497869018190385759 450.33791987151062131 40.009497869018190385759 72.30171701380150751
41.009497869018190385759 451.59589294203829013 41.009497869018190385759 70.50325236982976662
42.009497869018190385759 452.78325714117954703 42.009497869018190385759 68.65856944830777309
43.009497869018190385759 453.90462476222199939 43.009497869018190385759 66.87486959686773957
44.009497869018190385759 454.96407775992383904 44.009497869018190385759 65.07735099014536218
46.009497869018190385759 456.91174904836191217 46.009497869018190385759 61.60997760592010053
48.009497869018190385759 458.65257372367284461 48.009497869018190385759 58.29557756871079022
50.009497869018218807469 460.20892191194616316 50.009497869018218807469 55.08688064207756696
52.009497869018190385759 461.60221468369297781 52.009497869018190385759 52.00034427669623227
54.009497869018190385759 462.85002259769589728 54.009497869018190385759 49.06091618540499155
56.009497869018190385759 463.96860495044148820 56.009497869018190385759 46.24330618055043374
58.009497869018190385759 464.97167377566535151 58.009497869018190385759 43.55958211087306609
60.009497869018190385759 465.87219747923859359 60.009497869018190385759 41.00636613449222523
62.009497869018190385759 466.68058128150306629 62.009497869018190385759 38.57388206649735451
64.009497869018190385759 467.40750079344832102 64.009497869018190385759 36.26160891612627069
66.009497869018218807469 468.06093260031366299 66.009497869018218807469 34.09074240356088126
68.009497869018190385759 468.64875544077409586 68.009497869018190385759 32.03857341176302498
70.009497869018190385759 469.17790317255867194 70.009497869018190385759 30.07024921337290024
72.009497869018190385759 469.65405566769152301 72.009497869018190385759 28.23851319866699328
74.009497869018218807469 470.08308438246450578 74.009497869018218807469 26.49307699812992922
76.009497869018190385759 470.46978002982973521 76.009497869018190385759 24.84250380352867893
78.009497869018190385759 470.81837265689580363 78.009497869018190385759 23.27877932122818905
80.009497869018218807469 471.13279567018668104 80.009497869018218807469 21.81108920656754435
82.009497869018190385759 471.41633703573859293 82.009497869018190385759 20.41680913863503122
84.009497869018190385759 471.67194653155377182 84.009497869018190385759 19.05710218682864010
86.009497869018218807469 471.90262430800487436 86.009497869018218807469 17.81204021498338719
88.009497869018190385759 472.11080136356065395 88.009497869018190385759 16.59850785312837118
91.009497869018190385759 472.38558604973570709 91.009497869018190385759 14.91954859106898468
94.009497869018190385759 472.62146032489380332 94.009497869018190385759 13.35789865196345438
97.009497869018190385759 472.82343739925840964 97.009497869018190385759 11.94690164840459445
99.504748934509137825444 472.96917567319388809 99.504748934509137825444 10.15354815105754227
nan nan nan nan

