Time Pressure difference Time.1 Pressure.1 difference.1
(hr) (psi) (hr) (psi)
0.000200000000006639311 0.49293652316742542 0.000200000000006639311 0.39511468883375606
0.000399999999999067768 0.92177076166410921 0.000399999999999067768 0.84224293996350419
0.000600000000019917934 1.31629419223448285 0.000600000000019917934 1.15621991849949635
0.000799999999998135536 1.68630903837507762 0.000799999999998135536 1.44761033584656773
0.001007140329448930061 2.04937729939108459 0.001007140329448930061 1.72986139432407926
0.001267914553963578328 2.48293139189290946 0.001267914553963578328 2.06098442516663027
0.001596209851982166583 2.99848332131330686 0.001596209851982166583 2.44506431152431869
0.002009509145210586212 3.60890663652345545 0.002009509145210586212 2.88817430368167516
0.002529822128153114136 4.32850926963747007 0.002529822128153114136 3.39671057228198281
0.003184857364431081805 5.17310900881007552 0.003184857364431081805 3.97741914381936512
0.004009497869020606231 6.16011857547517927 0.004009497869020606231 4.63745704263749303
0.005047658755856332391 7.30864901909245201 0.005047658755856332391 5.38449202308913666
0.006354625877790454069 8.63964039179094989 0.006354625877790454069 6.22683674505276219
0.007999999999995566213 10.17602646796486887 0.007999999999995566213 7.17360717158402128
0.010071403294347192059 11.94293770848914527 0.010071403294347192059 8.23491077933570281
0.012679145539706837553 13.96795173251065414 0.012679145539706837553 9.42211596544327890
0.015962098519764822413 16.28141904651345939 0.015962098519764822413 10.74826846576742412
0.020095091452077440408 18.91690343700263099 0.020095091452077440408 12.22857141406888459
0.025298221281346400247 21.91172615379858613 0.025298221281346400247 13.88049082661449063
0.031848573644282396344 25.30745121040737544 0.031848573644282396344 15.72275568947189051
0.040094978690177640601 29.14996411173163793 0.040094978690177640601 17.77273070197434635
0.050476587558421215363 33.48874078582122138 0.050476587558421215363 20.04245401542712912
0.063546258777947173257 38.37509354810091367 0.063546258777947173257 22.53489697332039654
0.079999999999998294697 43.85970764081997686 0.079999999999998294697 25.24234748080824176
0.100714032943528764008 49.99013024258747606 0.100714032943528764008 28.14725556178455079
0.126791455396883634421 56.80868047543167165 0.126791455396883634421 31.22685185016172227
0.159620985197506115583 64.35204319630753389 0.159620985197506115583 34.46088739902814524
0.200950914520774404082 72.65271120491232182 0.200950914520774404082 37.83268054229221633
0.252982212813464002465 81.73902184969894336 0.252982212813464002465 41.33699783476970424
0.318485736442795541734 91.64016393165962882 0.318485736442795541734 44.99114425198963119
0.400949786901833249431 102.39122452450264689 0.400949786901833249431 48.80935666401981621
0.504765875584169521062 114.02632790886156045 0.504765875584169521062 52.83312104708151935
0.635462587779429100010 126.59741075939346899 0.635462587779429100010 57.10998050616770172
0.800000000000011368684 140.15745844826855659 0.800000000000011368684 61.70633384995358028
1.007140329435344483500 154.78474084053291904 1.007140329435344483500 66.69086352130993589
1.267914553968893187630 170.55814939962527887 1.267914553968893187630 72.11156876464592358
1.596209851975103788391 187.57029174515949421 1.596209851975103788391 78.00472767196295365
2.009509145207672986544 205.90645643429013489 2.009509145207672986544 84.32959793183114527
2.529822128134725289783 225.62740235307859393 2.529822128134725289783 90.96722199886316673
3.184857364427998049905 246.74763680254318388 3.184857364427998049905 97.71368966072563467
4.009497869018190385759 269.21540343948430518 4.009497869018190385759 104.29968283399431073
5.009497869018204596614 292.10149107803408697 5.009497869018204596614 110.23353980780686356
6.009497869018190385759 311.51624324397334931 6.009497869018190385759 114.59180009468033745
7.009497869018190385759 328.32838113918779754 7.009497869018190385759 117.79154757102523376
8.009497869018204596614 343.09856073062354653 8.009497869018204596614 120.10075022714886472
9.009497869018190385759 356.22072459933212940 9.009497869018190385759 121.69843174068360270
10.009497869018190385759 367.98800200553182549 10.009497869018190385759 122.73478611090756374
11.009497869018204596614 378.61601011585452170 11.009497869018204596614 123.46858830659979844
12.009497869018190385759 388.27423496977183959 12.009497869018190385759 123.85263531886617727
13.009497869018190385759 397.09632299104868025 13.009497869018190385759 123.95422954489016831
14.009497869018204596614 405.19042682277233780 14.009497869018204596614 123.82316774533984471
15.009497869018190385759 412.64554419793648776 15.009497869018190385759 123.46560585260301934
16.009497869018190385759 419.53611620789155268 16.009497869018190385759 122.89474192347002202
17.009497869018190385759 425.91739403230161543 17.009497869018190385759 122.02493146357002729
18.009497869018204596614 431.83990933334843021 18.009497869018204596614 121.01844436003061389
19.009497869018190385759 437.34561006294615026 19.009497869018190385759 119.69604583299653200
20.009497869018190385759 442.46886792137240718 20.009497869018190385759 118.39465051655683681
21.009497869018204596614 447.24013900471391025 21.009497869018204596614 117.00526544426257658
22.009497869018190385759 451.69303344042236859 22.009497869018190385759 115.54894236985366263
23.009497869018190385759 455.86215620880358301 23.009497869018190385759 113.98982773738019603
24.009497869018204596614 459.77075376236757620 24.009497869018204596614 112.42603653513913287
25.009497869018190385759 463.43985847109621545 25.009497869018190385759 110.77764928443980352
26.009497869018190385759 466.88852721761821840 26.009497869018190385759 108.88210665625018692
27.009497869018204596614 470.13233500242131413 27.009497869018204596614 106.94440691276471966
28.009497869018190385759 473.17577232646755192 28.009497869018190385759 104.92814843464529417
29.009497869018190385759 476.02649134841419709 29.009497869018190385759 102.88496430723876074
30.009497869018190385759 478.69962710218965185 30.009497869018190385759 100.83745461540875965
31.009497869018190385759 481.20156287209050561 31.009497869018190385759 98.73436521174333791
32.009497869018190385759 483.55408325224982491 32.009497869018190385759 96.62271106641676965
33.009497869018190385759 485.77466553296414986 33.009497869018190385759 94.54644401555312072
34.009497869018190385759 487.87205423212111555 34.009497869018190385759 92.45291659351140368
35.009497869018190385759 489.85180600891527547 35.009497869018190385759 90.27540076518316425
36.009497869018190385759 491.72142645027111030 36.009497869018190385759 88.24927765528040879
37.009497869018190385759 493.48526151131716233 37.009497869018190385759 86.23711035918461221
38.009497869018190385759 495.14733839688881289 38.009497869018190385759 84.20737559055491772
39.009497869018190385759 496.71135522523297823 39.009497869018190385759 82.13647404177561384
40.009497869018190385759 498.18632385785866745 40.009497869018190385759 79.98377444651791279
41.009497869018190385759 499.57795656712983146 41.009497869018190385759 77.99422293412419549
42.009497869018190385759 500.89147821242988812 42.009497869018190385759 75.95354245219049005
43.009497869018190385759 502.13199114320804028 43.009497869018190385759 73.98032449153492962
44.009497869018190385759 503.30401102191581231 44.009497869018190385759 71.99181953284831081
46.009497869018190385759 505.45862238475035610 46.009497869018190385759 68.15603772654911552
48.009497869018190385759 507.38440968181305379 48.009497869018190385759 64.48948268538632078
50.009497869018218807469 509.10611986509047711 50.009497869018218807469 60.93986171029830956
52.009497869018190385759 510.64744999383543700 52.009497869018190385759 57.52538085609521090
54.009497869018190385759 512.02783749870104657 54.009497869018190385759 54.27363853010427164
56.009497869018190385759 513.26526922642585760 56.009497869018190385759 51.15665746223391608
58.009497869018190385759 514.37491411432972654 58.009497869018190385759 48.18778771015333717
60.009497869018190385759 515.37111846140760463 60.009497869018190385759 45.36329253628202451
62.009497869018190385759 516.26539304266282215 62.009497869018190385759 42.67235703606269936
64.009497869018190385759 517.06954775275221436 64.009497869018190385759 40.11440486346468504
66.009497869018218807469 517.79240668909699252 66.009497869018218807469 37.71288378393922613
68.009497869018190385759 518.44268570635642845 68.009497869018190385759 35.44267183676284105
70.009497869018190385759 519.02805538464303936 70.009497869018190385759 33.26521319229377127
72.009497869018190385759 519.55479908238373810 72.009497869018190385759 31.23885522602536113
74.009497869018218807469 520.02941209810137480 74.009497869018218807469 29.30796642918123140
76.009497869018190385759 520.45719415799919716 76.009497869018190385759 27.48201983265359871
78.009497869018190385759 520.84282475169106874 78.009497869018190385759 25.75214962410868580
80.009497869018218807469 521.19065521014397291 80.009497869018218807469 24.12851743476534594
82.009497869018190385759 521.50432284578585040 82.009497869018190385759 22.58609510961500177
84.009497869018190385759 521.78709085053139916 84.009497869018190385759 21.08191929417918331
86.009497869018218807469 522.04227814073033187 86.009497869018218807469 19.70456948782537410
88.009497869018190385759 522.27257400843905089 88.009497869018190385759 18.36209931252326655
91.009497869018190385759 522.57655456752013379 91.009497869018190385759 16.50475062887006672
94.009497869018190385759 522.83749048441370633 94.009497869018190385759 14.77717538373457096
97.009497869018190385759 523.06092762292962561 97.009497869018190385759 13.21625994854758268
99.504748934509137825444 523.22215058847075397 99.504748934509137825444 11.23236264210740565
nan nan nan nan

