Time Pressure difference Time.1 Pressure.1 difference.1
(hr) (psi) (hr) (psi)
0.000200000000006639311 0.69484555101848955 0.000200000000006639311 0.55695545120916468
0.000399999999999067768 1.29933223183726132 0.000399999999999067768 1.18722945492030663
0.000600000000019917934 1.85545424272600834 0.000600000000019917934 1.62981282296962915
0.000799999999998135536 2.37702884222927624 0.000799999999998135536 2.04055807228089625
0.001007140329448930061 2.88881150394393016 0.001007140329448930061 2.43842044002179525
0.001267914553963578328 3.49995131230102174 0.001267914553963578328 2.90517296089872445
0.001596209851982166583 4.22667564219022651 0.001596209851982166583 3.44657370466281110
0.002009509145210586212 5.08713110628588794 0.002009509145210586212 4.07118355236484675
0.002529822128153114136 6.10148623036468241 0.002529822128153114136 4.78801857505285167
0.003184857364431081805 7.29203784010233935 0.003184857364431081805 5.60658800216345643
0.004009497869020606231 8.68333098633365630 0.004009497869020606231 6.53698040755962939
0.005047658755856332391 10.30230469075461386 0.005047658755856332391 7.59000429243355779
0.006354625877790454069 12.17847614549063273 0.006354625877790454069 8.77737721972126650
0.007999999999995566213 14.34417290258324762 0.007999999999995566213 10.11194909214809812
0.010071403294347192059 16.83481897326577581 0.010071403294347192059 11.60796745448733347
0.012679145539706837553 19.68928789413224933 0.012679145539706837553 13.28145725072371874
0.015962098519764822413 22.95036187630004676 0.015962098519764822413 15.15080780909023872
0.020095091452077440408 26.66535258492743665 0.020095091452077440408 17.23744953565077154
0.025298221281346400247 30.88686822244489250 0.025298221281346400247 19.56600260587748963
0.031848573644282396344 35.67349761015051257 0.031848573644282396344 22.16286748318212929
0.040094978690177640601 41.08992116314713883 0.040094978690177640601 25.05252152622937345
0.050476587558421215363 47.20588037323387454 0.050476587558421215363 28.25193376750885932
0.063546258777947173257 54.09370531215355271 0.063546258777947173257 31.76529262623411753
0.079999999999998294697 61.82484212646657795 0.079999999999998294697 35.58172709865342398
0.100714032943528764008 70.46631353404279707 0.100714032943528764008 39.67649865912567719
0.126791455396883634421 80.07777276056611981 0.126791455396883634421 44.01751150630141041
0.159620985197506115583 90.71093094620751174 0.159620985197506115583 48.57622263309334443
0.200950914520774404082 102.41159008828037713 0.200950914520774404082 53.32911748758140646
0.252982212813464002465 115.21969464124229887 0.252982212813464002465 58.26881898177989427
0.318485736442795541734 129.17638927089876688 0.318485736442795541734 63.41972028740911327
0.400949786901833249431 144.33113287493452503 0.400949786901833249431 68.80188976086408559
0.504765875584169521062 160.73202719356473267 0.504765875584169521062 74.47380622173355391
0.635462587779429100010 178.45228239812809079 0.635462587779429100010 80.50248664569967616
0.800000000000011368684 197.56658690871756789 0.800000000000011368684 86.98152709357863444
1.007140329435344483500 218.18527028086421637 1.007140329435344483500 94.00774264727020579
1.267914553968893187630 240.41953827800287513 1.267914553968893187630 101.64879325863932991
1.596209851975103788391 264.39993101930667763 1.596209851975103788391 109.95581669013986925
2.009509145207672986544 290.24667164042591594 2.009509145207672986544 118.87138239543429563
2.529822128134725289783 318.04540614176897861 2.529822128134725289783 128.22780728088338265
3.184857364427998049905 347.81658408042108022 3.184857364427998049905 137.73765858955391650
4.009497869018190385759 379.48724948108099397 4.009497869018190385759 147.02130433379426222
5.009497869018204596614 411.74758205632491581 5.009497869018204596614 155.38569594377295857
6.009497869018190385759 439.11470445972520338 6.009497869018190385759 161.52911934250136028
7.009497869018190385759 462.81317002388340143 7.009497869018190385759 166.03949784729263683
8.009497869018204596614 483.63328193384501219 8.009497869018204596614 169.29456034843863677
9.009497869018190385759 502.13034343239183954 9.009497869018190385759 171.54665943107659132
10.009497869018190385759 518.71755084960557269 10.009497869018190385759 173.00750923543185422
11.009497869018204596614 533.69883911811120925 11.009497869018204596614 174.04188012709971645
12.009497869018190385759 547.31311652518684241 12.009497869018190385759 174.58323453139612980
13.009497869018190385759 559.74877167382283005 13.009497869018190385759 174.72644221158245159
14.009497869018204596614 571.15825701854066665 14.009497869018204596614 174.54169690656661373
15.009497869018190385759 581.66702416601776804 15.009497869018190385759 174.03767604646586165
16.009497869018190385759 591.38000561507874409 16.009497869018190385759 173.23298367178401236
17.009497869018190385759 600.37508367830082534 17.009497869018190385759 172.00689491616225268
18.009497869018204596614 608.72348801508712768 18.009497869018204596614 170.58814614591886993
19.009497869018190385759 616.48434864805119560 19.009497869018190385759 168.72408720526911452
20.009497869018190385759 623.70611608125659586 20.009497869018190385759 166.88963448520297561
21.009497869018204596614 630.43172136540181327 21.009497869018204596614 164.93115100759047209
22.009497869018190385759 636.70854148805301520 22.009497869018190385759 162.87831141965247639
23.009497869018190385759 642.58535578585576786 23.009497869018190385759 160.68057638687210442
24.009497869018204596614 648.09493256333735189 24.009497869018204596614 158.47624924021025095
25.009497869018190385759 653.26691914428533892 25.009497869018190385759 156.15267512128659178
26.009497869018190385759 658.12817819658607732 26.009497869018190385759 153.48070966516621638
27.009497869018204596614 662.70066431132272555 27.009497869018204596614 150.74931934878415518
28.009497869018190385759 666.99070731894721575 28.009497869018190385759 147.90719228499435189
29.009497869018190385759 671.00909373688898540 29.009497869018190385759 145.02711070427156415
30.009497869018190385759 674.77715797738039782 30.009497869018190385759 142.14093178838692211
31.009497869018190385759 678.30389794681684634 31.009497869018190385759 139.17640745949131542
32.009497869018190385759 681.62002130754990503 32.009497869018190385759 136.19981023203945369
33.009497869018190385759 684.75016412697482338 33.009497869018190385759 133.27309481288418169
34.009497869018190385759 687.70665271702955579 34.009497869018190385759 130.32204909650337754
35.009497869018190385759 690.49731976962914359 35.009497869018190385759 127.25261294301243709
36.009497869018190385759 693.13274519402614260 36.009497869018190385759 124.39658064967491669
37.009497869018190385759 695.61905506821256040 37.009497869018190385759 121.56022053455684784
38.009497869018190385759 697.96192615832626416 38.009497869018190385759 118.69909723075396357
39.009497869018190385759 700.16657134856291123 39.009497869018190385759 115.77994504758765970
40.009497869018190385759 702.24569379963691063 40.009497869018190385759 112.74548996839672554
41.009497869018190385759 704.20734555649096365 41.009497869018190385759 109.94100916420330805
42.009497869018190385759 706.05889160452682063 42.009497869018190385759 107.06445673345494640
43.009497869018190385759 707.80752423858984912 43.009497869018190385759 104.28299977761562900
44.009497869018190385759 709.45960875688126634 44.009497869018190385759 101.47999420025793427
46.009497869018190385759 712.49675867228927473 46.009497869018190385759 96.07305882923165541
48.009497869018190385759 715.21135715035234171 48.009497869018190385759 90.90466627120839860
50.009497869018218807469 717.63828760644105387 50.009497869018218807469 85.90110450123970054
52.009497869018190385759 719.81095352238378382 52.009497869018190385759 81.08803685647319526
54.009497869018190385759 721.75675398828207108 54.009497869018190385759 76.50436617661591754
56.009497869018190385759 723.50104334459467736 56.009497869018190385759 72.11065557529583714
58.009497869018190385759 725.06520379392804898 58.009497869018190385759 67.92572335414268991
60.009497869018190385759 726.46945794418763853 60.009497869018190385759 63.94430219097381496
62.009497869018190385759 727.73003143584389818 62.009497869018190385759 60.15114734744431502
64.009497869018190385759 728.86357154978338713 64.009497869018190385759 56.54544640358439977
66.009497869018218807469 729.88251677361404290 66.009497869018218807469 53.16025143555275179
68.009497869018190385759 730.79915301545713646 68.009497869018190385759 49.96015041396796619
70.009497869018190385759 731.62429275970873732 70.009497869018190385759 46.89079486710336653
72.009497869018190385759 732.36679305680650032 72.009497869018190385759 44.03443151917134912
74.009497869018218807469 733.03580970890573099 74.009497869018218807469 41.31264194395885170
76.009497869018190385759 733.63881323401574264 76.009497869018190385759 38.73877936862753302
78.009497869018190385759 734.18239986184687496 78.009497869018190385759 36.30034650404020624
80.009497869018218807469 734.67270324819730831 80.009497869018218807469 34.01166723149126625
82.009497869018190385759 735.11485056510480263 82.009497869018190385759 31.83746175055900096
84.009497869018190385759 735.51344162264160786 84.009497869018190385759 29.71716872258591025
86.009497869018218807469 735.87315478029506721 86.009497869018218807469 27.77565021023971781
88.009497869018190385759 736.19778087630243135 88.009497869018190385759 25.88329818347206057
91.009497869018190385759 736.62627324630659587 91.009497869018190385759 23.26517108419820090
94.009497869018190385759 736.99408969413127579 94.009497869018190385759 20.82997321040551242
97.009497869018190385759 737.30904769446863156 97.009497869018190385759 18.62969975798091582
99.504748934509137825444 737.53630831538669099 99.504748934509137825444 15.83318914805535371
nan nan nan nan

