Time Pressure difference Time.1 Pressure.1 difference.1
(hr) (psi) (hr) (psi)
0.000200000000006639311 0.67256593415216515 0.000200000000006639311 0.53909716018843001
0.000399999999999067768 1.25767027650781005 0.000399999999999067768 1.14916197740783188
0.000600000000019917934 1.79596071991315021 0.000600000000019917934 1.57755429557982141
0.000799999999998135536 2.30081148456260598 0.000799999999998135536 1.97512935653641875
0.001007140329448930061 2.79618428137258190 0.001007140329448930061 2.36023461428963355
0.001267914553963578328 3.38772842453185108 0.001267914553963578328 2.81202112247311442
0.001596209851982166583 4.09115097230035918 0.001596209851982166583 3.33606232335097719
0.002009509145210586212 4.92401668203624077 0.002009509145210586212 3.94064460078601408
0.002529822128153114136 5.90584739331892106 0.002529822128153114136 4.63449493336779028
0.003184857364431081805 7.05822500354595128 0.003184857364431081805 5.42681764538065980
0.004009497869020606231 8.40490754789410133 0.004009497869020606231 6.32737782936132565
0.005047658755856332391 9.97197027181258200 0.005047658755856332391 7.34663742133348396
0.006354625877790454069 11.78798392439273535 0.006354625877790454069 8.49593827079232788
0.007999999999995566213 13.88423950290122022 0.007999999999995566213 9.78771825953413099
0.010071403294347192059 16.29502517853180166 0.010071403294347192059 11.23576809722922398
0.012679145539706837553 19.05796804181538207 0.012679145539706837553 12.85559890200311806
0.015962098519764822413 22.21447852956497471 0.015962098519764822413 14.66501036430978999
0.020095091452077440408 25.81035129963917996 0.020095091452077440408 16.68474574292449475
0.025298221281346400247 29.89650771831840714 0.025298221281346400247 18.93863578885536825
0.031848573644282396344 34.52965800742023106 0.031848573644282396344 21.45223445766927384
0.040094978690177640601 39.77240866092198246 0.040094978690177640601 24.24923426286330397
0.050476587558421215363 45.69226497048489222 0.050476587558421215363 27.34606013969294480
0.063546258777947173257 52.35923780715464204 0.063546258777947173257 30.74676620936088156
0.079999999999998294697 59.84248245908488428 0.079999999999998294697 34.44083003737395643
0.100714032943528764008 68.20687261912358679 0.100714032943528764008 38.40430631735011247
0.126791455396883634421 77.51014878427541532 0.126791455396883634421 42.60612837183082746
0.159620985197506115583 87.80236402208061008 0.159620985197506115583 47.01866840036890949
0.200950914520774404082 99.12785172873631723 0.200950914520774404082 51.61916582465293857
0.252982212813464002465 111.52527557458923013 0.252982212813464002465 56.40048009659255968
0.318485736442795541734 125.03446095760341450 0.318485736442795541734 61.38622224212144829
0.400949786901833249431 139.70328091902482015 0.400949786901833249431 66.59581714328126623
0.504765875584169521062 155.57829485870095709 0.504765875584169521062 72.08586854728919491
0.635462587779429100010 172.73036552764702378 0.635462587779429100010 77.92124458892372729
0.800000000000011368684 191.23178652687491308 0.800000000000011368684 84.19254025290277355
1.007140329435344483500 211.18934979089661397 1.007140329435344483500 90.99346632992286743
1.267914553968893187630 232.71069536728535354 1.267914553968893187630 98.38951331447454152
1.596209851975103788391 255.92217772009047394 1.596209851975103788391 106.43017928123758509
2.009509145207672986544 280.94016513492130116 2.009509145207672986544 115.05987514427808094
2.529822128134725289783 307.84755744784456510 2.529822128134725289783 124.11629442217768826
3.184857364427998049905 336.66414851872423242 3.184857364427998049905 133.32122063878668428
4.009497869018190385759 367.31932164200827629 4.009497869018190385759 142.30719437519564963
5.009497869018204596614 398.54525477596172323 5.009497869018204596614 150.40338905980428308
6.009497869018190385759 425.03487425660773624 6.009497869018190385759 156.34982894274182286
7.009497869018190385759 447.97346918143421135 7.009497869018190385759 160.71558609267000861
8.009497869018204596614 468.12600235279990102 8.009497869018204596614 163.86627785229632082
9.009497869018190385759 486.02997169908871911 9.009497869018190385759 166.04616534110218140
10.009497869018190385759 502.08532477025948992 10.009497869018190385759 167.46017426996709787
11.009497869018204596614 516.58625109027593680 11.009497869018204596614 168.46137896069970452
12.009497869018190385759 529.76399856045134129 12.009497869018190385759 168.98537530794453687
13.009497869018190385759 541.80091526744774910 13.009497869018190385759 169.12399115870604760
14.009497869018204596614 552.84456541073166136 14.009497869018204596614 168.94516955084503707
15.009497869018190385759 563.01637810057434308 15.009497869018190385759 168.45730968024648178
16.009497869018190385759 572.41792126669952268 16.009497869018190385759 167.67841906507351268
17.009497869018190385759 581.12457999322509750 17.009497869018190385759 166.49164377656586566
18.009497869018204596614 589.20530002261943991 18.009497869018204596614 165.11838594885531961
19.009497869018190385759 596.71731542486713806 19.009497869018190385759 163.31409643315629410
20.009497869018190385759 603.70752318085555999 20.009497869018190385759 161.53846384038686779
21.009497869018204596614 610.21747779456723038 21.009497869018204596614 159.64277742818876504
22.009497869018190385759 616.29303715176274636 22.009497869018190385759 157.65576035208846406
23.009497869018190385759 621.98141652218112085 23.009497869018190385759 155.52849377727298474
24.009497869018204596614 627.31433352323028885 24.009497869018204596614 153.39484645896104098
25.009497869018190385759 632.32048486310588942 25.009497869018190385759 151.14577571860007765
26.009497869018190385759 637.02587188166546639 26.009497869018190385759 148.55948450556169860
27.009497869018204596614 641.45174521516810273 27.009497869018204596614 145.91567383860271434
28.009497869018190385759 645.60423173357003179 28.009497869018190385759 143.16467710150757853
29.009497869018190385759 649.49377209402280187 29.009497869018190385759 140.37694282597831830
30.009497869018190385759 653.14101663942824416 30.009497869018190385759 137.58330672102380277
31.009497869018190385759 656.55467476615740452 31.009497869018190385759 134.71383728042948746
32.009497869018190385759 659.76446952213746044 32.009497869018190385759 131.83268204824662462
33.009497869018190385759 662.79424704073926478 33.009497869018190385759 128.99980920766145687
34.009497869018190385759 665.65593840145345439 34.009497869018190385759 126.14338619962147447
35.009497869018190385759 668.35712514775730142 35.009497869018190385759 123.17236884063127889
36.009497869018190385759 670.90804795333599486 36.009497869018190385759 120.40791273305208620
37.009497869018190385759 673.31463646883094043 37.009497869018190385759 117.66249803244680550
38.009497869018190385759 675.58238543982281499 38.009497869018190385759 114.89311415321476773
39.009497869018190385759 677.71634060391954790 39.009497869018190385759 112.06756204004977917
40.009497869018190385759 679.72879780606137956 40.009497869018190385759 109.13040411770666083
41.009497869018190385759 681.62755090938901503 41.009497869018190385759 106.41584654571181545
42.009497869018190385759 683.41972874746784328 42.009497869018190385759 103.63152826103956272
43.009497869018190385759 685.11229300047887136 43.009497869018190385759 100.93925629777224628
44.009497869018190385759 686.71140486888498344 44.009497869018190385759 98.22612665075065763
46.009497869018190385759 689.65117121987123028 46.009497869018190385759 92.99255994893566424
48.009497869018190385759 692.27872846416858010 48.009497869018190385759 87.98988739277285731
50.009497869018218807469 694.62784151084372297 50.009497869018218807469 83.14676046913582752
52.009497869018190385759 696.73084278819919746 52.009497869018190385759 78.48801964263837760
54.009497869018190385759 698.61425285839709431 54.009497869018190385759 74.05132036734565304
56.009497869018190385759 700.30261309707259443 56.009497869018190385759 69.79849026626831687
58.009497869018190385759 701.81662010514480698 58.009497869018190385759 65.74774424859904798
60.009497869018190385759 703.17584807022569748 60.009497869018190385759 61.89398388424920938
62.009497869018190385759 704.39600237176875908 62.009497869018190385759 58.22245324411944267
64.009497869018190385759 705.49319651011103360 64.009497869018190385759 54.73236595777808589
66.009497869018218807469 706.47947014359840523 66.009497869018218807469 51.45571431537470630
68.009497869018190385759 707.36671524341841177 68.009497869018190385759 48.35822174337981494
70.009497869018190385759 708.16539760108071278 70.009497869018190385759 45.38728240643472134
72.009497869018190385759 708.88409027342186164 72.009497869018190385759 42.62250585923799662
74.009497869018218807469 709.53165548978245170 74.009497869018218807469 39.98798809405235488
76.009497869018190385759 710.11532423252424451 76.009497869018190385759 37.49665417845109516
78.009497869018190385759 710.64148122900212456 78.009497869018190385759 35.13640753797880478
80.009497869018218807469 711.11606346468795437 80.009497869018218807469 32.92111277116288903
82.009497869018190385759 711.54403371331784456 82.009497869018190385759 30.81662129362724656
84.009497869018190385759 711.92984429606394770 84.009497869018190385759 28.76431361324447877
86.009497869018218807469 712.27802356489485192 86.009497869018218807469 26.88504819949054792
88.009497869018190385759 712.59224080812441571 88.009497869018190385759 25.05337279081564006
91.009497869018190385759 713.00699394381990714 91.009497869018190385759 22.51919365464474865
94.009497869018190385759 713.36301667788643499 94.009497869018190385759 20.16207827780733908
97.009497869018190385759 713.66787582450558602 97.009497869018190385759 18.03235467556068627
99.504748934509137825444 713.88784953172705627 99.504748934509137825444 15.32551174050247766
nan nan nan nan

