Time Pressure difference Time.1 Pressure.1 difference.1
(hr) (psi) (hr) (psi)
0.000200000000006639311 0.03968556754314018 0.000200000000006639311 0.03181008088068375
0.000399999999999067768 0.07421035793058507 0.000399999999999067768 0.06780769431909568
0.000600000000019917934 0.10597283751040328 0.000600000000019917934 0.09308550191309506
0.000799999999998135536 0.13576216834375623 0.000799999999998135536 0.11654489991985079
0.001007140329448930061 0.16499224020521444 0.001007140329448930061 0.13926850208541317
0.001267914553963578328 0.19989701883883593 0.001267914553963578328 0.16592671219561855
0.001596209851982166583 0.24140331824132558 0.001596209851982166583 0.19684839796170364
0.002009509145210586212 0.29054756819468502 0.002009509145210586212 0.23252250749979589
0.002529822128153114136 0.34848167848776246 0.002529822128153114136 0.27346398675151556
0.003184857364431081805 0.41647911511606545 0.003184857364431081805 0.32021594801935566
0.004009497869020606231 0.49594174972045940 0.004009497869020606231 0.37335459241573038
0.005047658755856332391 0.58840818374049397 0.005047658755856332391 0.43349723914700677
0.006354625877790454069 0.69556426883062739 0.006354625877790454069 0.50131312777967152
0.007999999999995566213 0.81925636818361236 0.007999999999995566213 0.57753617059362883
0.010071403294347192059 0.96150769686988891 0.010071403294347192059 0.66298010511601002
0.012679145539706837553 1.12453848693941705 0.012679145539706837553 0.75856018365856903
0.015962098519764822413 1.31079221137184643 0.015962098519764822413 0.86532669851517396
0.020095091452077440408 1.52297103941970335 0.020095091452077440408 0.98450363079368131
0.025298221281346400247 1.76407964797530981 0.025298221281346400247 1.11749714282065815
0.031848573644282396344 2.03746429236330551 0.031848573644282396344 1.26581507669477089
0.040094978690177640601 2.34681914458856378 0.040094978690177640601 1.43085543787081582
0.050476587558421215363 2.69612743614662431 0.050476587558421215363 1.61358739954709929
0.063546258777947173257 3.08952024327931118 0.063546258777947173257 1.81425018005545557
0.079999999999998294697 3.53107815752364207 0.079999999999998294697 2.03222289040405313
0.100714032943528764008 4.02462912969983844 0.100714032943528764008 2.26609260878773933
0.126791455396883634421 4.57358020776780361 0.126791455396883634421 2.51402620827573164
0.159620985197506115583 5.18088483360102980 0.159620985197506115583 2.77439347704040129
0.200950914520774404082 5.84915895293785670 0.200950914520774404082 3.04585139959132256
0.252982212813464002465 6.58068396247576270 0.252982212813464002465 3.32797863923993376
0.318485736442795541734 7.37780980805734288 0.318485736442795541734 3.62216839316865657
0.400949786901833249431 8.24336129646419558 0.400949786901833249431 3.92956685006939166
0.504765875584169521062 9.18008572147614110 0.504765875584169521062 4.25351398260402025
0.635462587779429100010 10.19216442554438906 0.635462587779429100010 4.59783741363214560
0.800000000000011368684 11.28386318015721557 0.800000000000011368684 4.96788280995389009
1.007140329435344483500 12.46148337275477047 1.007140329435344483500 5.36917969027495179
1.267914553968893187630 13.73137643471559421 1.267914553968893187630 5.80559240054352887
1.596209851975103788391 15.10099806422894275 1.596209851975103788391 6.28004163460718701
2.009509145207672986544 16.57721471293013948 2.009509145207672986544 6.78924729112199898
2.529822128134725289783 18.16491798605293795 2.529822128134725289783 7.32363227956949192
3.184857364427998049905 19.86527584427254567 3.184857364427998049905 7.86678009980418302
4.009497869018190385759 21.67412146334831391 4.009497869018190385759 8.39700836375377868
5.009497869018204596614 23.51664546814681245 5.009497869018204596614 8.87473413706919700
6.009497869018190385759 25.07969754930294215 6.009497869018190385759 9.22561102457172133
7.009497869018190385759 26.43321712561257897 7.009497869018190385759 9.48321781292152188
8.009497869018204596614 27.62234175373664158 8.009497869018204596614 9.66912819625351005
9.009497869018190385759 28.67878714994623124 9.009497869018190385759 9.79775509776690079
10.009497869018190385759 29.62615270383518862 10.009497869018190385759 9.88119040723408482
11.009497869018204596614 30.48179742458150443 11.009497869018204596614 9.94026770264998305
12.009497869018190385759 31.25936637468502255 12.009497869018190385759 9.97118674177312592
13.009497869018190385759 31.96961922385561294 13.009497869018190385759 9.97936593793607152
14.009497869018204596614 32.62126317640964146 14.009497869018204596614 9.96881435237905578
15.009497869018190385759 33.22146330407115755 15.009497869018190385759 9.94002758982821000
16.009497869018190385759 33.77621274555058761 16.009497869018190385759 9.89406820570309442
17.009497869018190385759 34.28995968904123259 17.009497869018190385759 9.82404109240606083
18.009497869018204596614 34.76677236158313633 18.009497869018204596614 9.74301035101941437
19.009497869018190385759 35.21002792879651366 19.009497869018190385759 9.63654606282599069
20.009497869018190385759 35.62249360383930252 20.009497869018190385759 9.53177271107872848
21.009497869018204596614 36.00662136054900486 21.009497869018204596614 9.41991543830927469
22.009497869018190385759 36.36511709901704847 22.009497869018190385759 9.30266908909838897
23.009497869018190385759 36.70076681342062130 23.009497869018190385759 9.17714714834840706
24.009497869018204596614 37.01544204019061368 24.009497869018204596614 9.05124870410018367
25.009497869018190385759 37.31083606335096192 25.009497869018190385759 8.91853956103540924
26.009497869018190385759 37.58848312345232046 26.009497869018190385759 8.76593231554556596
27.009497869018204596614 37.84963714002545032 27.009497869018204596614 8.60993106501071992
28.009497869018190385759 38.09465963645289577 28.009497869018190385759 8.44760517058585059
29.009497869018190385759 38.32416667635538232 29.009497869018190385759 8.28311153320989924
30.009497869018190385759 38.53937675822713516 30.009497869018190385759 8.11826965124053679
31.009497869018190385759 38.74080379054966272 31.009497869018190385759 7.94895313145391302
32.009497869018190385759 38.93020161776587429 32.009497869018190385759 7.77894707738101143
33.009497869018190385759 39.10897730985728060 33.009497869018190385759 7.61178998430300435
34.009497869018190385759 39.27783487461991996 34.009497869018190385759 7.44324328507083344
35.009497869018190385759 39.43722167020928282 35.009497869018190385759 7.26793480736644160
36.009497869018190385759 39.58774195997945355 36.009497869018190385759 7.10481472648443901
37.009497869018190385759 39.72974563014841465 37.009497869018190385759 6.94281820688350670
38.009497869018190385759 39.86355690483426173 38.009497869018190385759 6.77940735686670948
39.009497869018190385759 39.98947351389588079 39.009497869018190385759 6.61268223217685058
40.009497869018190385759 40.10822098855641826 40.009497869018190385759 6.43937167154169732
41.009497869018190385759 40.22025921515028557 41.009497869018190385759 6.27919591418796497
42.009497869018190385759 40.32600883913629985 42.009497869018190385759 6.11490384148991239
43.009497869018190385759 40.42588064288539584 43.009497869018190385759 5.95604307347103301
44.009497869018190385759 40.52023817549321905 44.009497869018190385759 5.79595157255982141
46.009497869018190385759 40.69370264961973760 46.009497869018190385759 5.48713863052725959
48.009497869018190385759 40.84874484726460508 48.009497869018190385759 5.19194987721330570
50.009497869018218807469 40.98735710778269947 50.009497869018218807469 4.90617530718503314
52.009497869018190385759 41.11144724526641170 52.009497869018190385759 4.63128066214325873
54.009497869018190385759 41.22258013760728801 54.009497869018190385759 4.36948784776263199
56.009497869018190385759 41.32220387839869602 56.009497869018190385759 4.11854445670527358
58.009497869018190385759 41.41153969564519599 58.009497869018190385759 3.87952528174963307
60.009497869018190385759 41.49174258799467907 60.009497869018190385759 3.65212948385321345
62.009497869018190385759 41.56373927038386995 62.009497869018190385759 3.43548637154742087
64.009497869018190385759 41.62848053941648629 64.009497869018190385759 3.22954954409249595
66.009497869018218807469 41.68667680971542921 66.009497869018218807469 3.03620674531714085
68.009497869018190385759 41.73902978144393927 68.009497869018190385759 2.85343544448514397
70.009497869018190385759 41.78615700130600885 70.009497869018190385759 2.67813157056602380
72.009497869018190385759 41.82856433290378106 72.009497869018190385759 2.51499258175627904
74.009497869018218807469 41.86677470281324531 74.009497869018218807469 2.35953967014594657
76.009497869018190385759 41.90121478390670973 76.009497869018190385759 2.21253549500177282
78.009497869018190385759 41.93226131475478979 78.009497869018190385759 2.07326628329688578
80.009497869018218807469 41.96026461437599409 80.009497869018218807469 1.94255013245992192
82.009497869018190385759 41.98551751724546932 82.009497869018190385759 1.81837206390968231
84.009497869018190385759 42.00828273796650336 84.009497869018190385759 1.69727316351442581
86.009497869018218807469 42.02882747743168323 86.009497869018218807469 1.58638483164695776
88.009497869018190385759 42.04736824644212589 88.009497869018190385759 1.47830460566924571
91.009497869018190385759 42.07184125755458837 91.009497869018190385759 1.32877229639208139
94.009497869018190385759 42.09284881018584912 94.009497869018190385759 1.18968784869049515
97.009497869018190385759 42.11083739337144749 97.009497869018190385759 1.06402092806103421
99.504748934509137825444 42.12381720839383092 99.504748934509137825444 0.90430038220356235
nan nan nan nan

