Time Pressure difference Time.1 Pressure.1 difference.1
(hr) (psi) (hr) (psi)
0.000200000000006639311 0.61268946382391853 0.000200000000006639311 0.49110300307020532
0.000399999999999067768 1.14570377155990988 0.000399999999999067768 1.04685563159305617
0.000600000000019917934 1.63607187735359449 0.000600000000019917934 1.43710950321971320
0.000799999999998135536 2.09597733583342949 0.000799999999998135536 1.79928968297313507
0.001007140329448930061 2.54724862071208280 0.001007140329448930061 2.15011020763444893
0.001267914553963578328 3.08612941365220372 0.001267914553963578328 2.56167555670428637
0.001596209851982166583 3.72692842197134233 0.001596209851982166583 3.03906298607542436
0.002009509145210586212 4.48564666686531233 0.002009509145210586212 3.58982116841790111
0.002529822128153114136 5.38006801875843710 0.002529822128153114136 4.22190014633918853
0.003184857364431081805 6.42985300530065906 0.003184857364431081805 4.94368481152689476
0.004009497869020606231 7.65664455708779279 0.004009497869020606231 5.76407090045338144
0.005047658755856332391 9.08419652090587171 0.005047658755856332391 6.69258895525203545
0.006354625877790454069 10.73853608019214256 0.006354625877790454069 7.73957109554580747
0.007999999999995566213 12.64816849125576859 0.007999999999995566213 8.91634789688409413
0.010071403294347192059 14.84432935518425012 0.010071403294347192059 10.23548232459804908
0.012679145539706837553 17.36129593871380905 0.012679145539706837553 11.71110458981650559
0.015962098519764822413 20.23679203521447079 0.015962098519764822413 13.35942973146233470
0.020095091452077440408 23.51253534542699697 0.020095091452077440408 15.19935429997262410
0.025298221281346400247 27.23491386347846444 0.025298221281346400247 17.25258746810840549
0.031848573644282396344 31.45558907508261015 0.031848573644282396344 19.54240820160348235
0.040094978690177640601 36.23159381119186406 0.040094978690177640601 22.09039974256698358
0.050476587558421215363 41.62442357559699957 0.050476587558421215363 24.91152476493767409
0.063546258777947173257 47.69785638747006118 0.063546258777947173257 28.00947646401405322
0.079999999999998294697 54.51489085299657944 0.079999999999998294697 31.37466918518538250
0.100714032943528764008 62.13462516027821891 0.100714032943528764008 34.98528939882825028
0.126791455396883634421 70.60965934799416743 0.126791455396883634421 38.81303619794112336
0.159620985197506115583 79.98559041348958942 0.159620985197506115583 42.83274139992198570
0.200950914520774404082 90.30280488746166156 0.200950914520774404082 47.02367073053270019
0.252982212813464002465 101.59652433295913454 0.252982212813464002465 51.37931934265160550
0.318485736442795541734 113.90302861562213366 0.318485736442795541734 55.92119624541084022
0.400949786901833249431 127.26592878751741011 0.400949786901833249431 60.66699698352744718
0.504765875584169521062 141.72763920875448207 0.504765875584169521062 65.66828604721996498
0.635462587779429100010 157.35271393822915798 0.635462587779429100010 70.98415656133838070
0.800000000000011368684 174.20701050067279425 0.800000000000011368684 76.69713811858636632
1.007140329435344483500 192.38781347410872513 1.007140329435344483500 82.89259872705189025
1.267914553968893187630 211.99318004473198584 1.267914553968893187630 89.63019846453165940
1.596209851975103788391 233.13821572844682350 1.596209851975103788391 96.95502874481270794
2.009509145207672986544 255.92892890137758855 2.009509145207672986544 104.81644940679576905
2.529822128134725289783 280.44083908292259366 2.529822128134725289783 113.06660361440620477
3.184857364427998049905 306.69197794666388290 3.184857364427998049905 121.45204364609965353
4.009497869018190385759 334.61801557450030487 4.009497869018190385759 129.63802386146184631
5.009497869018204596614 363.06400020998586342 5.009497869018204596614 137.01343930913847657
6.009497869018190385759 387.19533058572966411 6.009497869018190385759 142.43048599338800386
7.009497869018190385759 408.09177316735207341 7.009497869018190385759 146.40757325212175033
8.009497869018204596614 426.45018847874109724 8.009497869018204596614 149.27776864391384493
9.009497869018190385759 442.76022266583652254 9.009497869018190385759 151.26358747429600271
10.009497869018190385759 457.38621718201699196 10.009497869018190385759 152.55171155028057228
11.009497869018204596614 470.59617076546885528 11.009497869018204596614 153.46378207599974530
12.009497869018190385759 482.60074403022485967 12.009497869018190385759 153.94112864491839332
13.009497869018190385759 493.56605117531466931 13.009497869018190385759 154.06740395410076871
14.009497869018204596614 503.62651921474531491 14.009497869018204596614 153.90450228234331576
15.009497869018190385759 512.89276679969509587 15.009497869018190385759 153.46007507103200851
16.009497869018190385759 521.45731958043018039 16.009497869018190385759 152.75052668453901106
17.009497869018190385759 529.38885133958387996 17.009497869018190385759 151.66940633890058621
18.009497869018204596614 536.75016979286237984 18.009497869018204596614 150.41840541924707964
19.009497869018190385759 543.59341363756016108 19.009497869018190385759 148.77474623310303059
20.009497869018190385759 549.96130476102780449 20.009497869018190385759 147.15719273244351939
21.009497869018204596614 555.89169819794949490 21.009497869018204596614 145.43027343354671643
22.009497869018190385759 561.42636924798250675 22.009497869018190385759 143.62015435801023955
23.009497869018190385759 566.60832975105529385 23.009497869018190385759 141.68227176397539324
24.009497869018204596614 571.46647360294275586 24.009497869018204596614 139.73857648435372880
25.009497869018190385759 576.02694273243594125 25.009497869018190385759 137.68973357387997680
26.009497869018190385759 580.31342366031651636 26.009497869018190385759 135.33369188912453751
27.009497869018204596614 584.34527514425246864 27.009497869018204596614 132.92525152999002103
28.009497869018190385759 588.12807859786926201 28.009497869018190385759 130.41916754588680760
29.009497869018190385759 591.67134517881993361 29.009497869018190385759 127.87961665306512771
30.009497869018190385759 594.99388679368200883 30.009497869018190385759 125.33468935248545506
31.009497869018190385759 598.10363746813516173 31.009497869018190385759 122.72067992420076621
32.009497869018190385759 601.02767409884154404 32.009497869018190385759 120.09602505430333963
33.009497869018190385759 603.78771987148081735 33.009497869018190385759 117.51535414362534482
34.009497869018190385759 606.39464367834261793 34.009497869018190385759 114.91322966425146035
35.009497869018190385759 608.85535210147656926 35.009497869018190385759 112.20671281548190734
36.009497869018190385759 611.17917411898099544 36.009497869018190385759 109.68836770712819373
37.009497869018190385759 613.37151148299301440 37.009497869018190385759 107.18736880802607914
38.009497869018190385759 615.43736975884473850 38.009497869018190385759 104.66453463232815579
39.009497869018190385759 617.38134547769072924 39.009497869018190385759 102.09053270729171459
40.009497869018190385759 619.21463982332716114 40.009497869018190385759 99.41486089397706394
41.009497869018190385759 620.94435279530262051 41.009497869018190385759 96.94197200851593266
42.009497869018190385759 622.57697856912182033 42.009497869018190385759 94.40553299142320043
43.009497869018190385759 624.11885904805524206 43.009497869018190385759 91.95294569569313126
44.009497869018190385759 625.57560691989522184 44.009497869018190385759 89.48135761144986589
46.009497869018190385759 628.25365494149752976 46.009497869018190385759 84.71371920814014800
48.009497869018190385759 630.64728887005014712 48.009497869018190385759 80.15641915697734987
50.009497869018218807469 632.78726762892597435 50.009497869018218807469 75.74446088285665724
52.009497869018190385759 634.70304519007800081 52.009497869018190385759 71.50047338045732204
54.009497869018190385759 636.41878107183174507 54.009497869018190385759 67.45875975493186161
56.009497869018190385759 637.95683180685705338 56.009497869018190385759 63.58454599825684994
58.009497869018190385759 639.33605144153978017 58.009497869018190385759 59.89442540245046587
60.009497869018190385759 640.57427153395303776 60.009497869018190385759 56.38375343492680969
62.009497869018190385759 641.68579926206678010 62.009497869018190385759 53.03908784143386868
64.009497869018190385759 642.68531359099142719 64.009497869018190385759 49.85971225967362130
66.009497869018218807469 643.58378232543122976 66.009497869018218807469 46.87477080489621528
68.009497869018190385759 644.39203873106441733 68.009497869018190385759 44.05303844117415224
70.009497869018190385759 645.11961686226823076 70.009497869018190385759 41.34659266838773561
72.009497869018190385759 645.77432654307585835 72.009497869018190385759 38.82795564816711931
74.009497869018218807469 646.36424102588875940 74.009497869018218807469 36.42798087242865535
76.009497869018190385759 646.89594754101585750 76.009497869018190385759 34.15844272985193442
78.009497869018190385759 647.37526240323177262 78.009497869018190385759 32.00832156668876394
80.009497869018218807469 647.80759404650666511 80.009497869018218807469 29.99024765903037348
82.009497869018190385759 648.19746342414055107 82.009497869018190385759 28.07311256562316615
84.009497869018190385759 648.54892648088650731 84.009497869018190385759 26.20351550688938147
86.009497869018218807469 648.86610842350671646 86.009497869018218807469 24.49155529560215783
88.009497869018190385759 649.15235187489588498 88.009497869018190385759 22.82294829805151437
91.009497869018190385759 649.53018081838661146 91.009497869018190385759 20.51437931271985349
94.009497869018190385759 649.85450794672885877 94.009497869018190385759 18.36711064644974911
97.009497869018190385759 650.13222642398034168 97.009497869018190385759 16.42698976655631782
99.504748934509137825444 650.33261655064154638 99.504748934509137825444 13.96112870770411973
nan nan nan nan

