Time Pressure difference Time.1 Pressure.1 difference.1
(hr) (psi) (hr) (psi)
0.000200000000006639311 0.66142612571900294 0.000200000000006639311 0.53016801467806263
0.000399999999999067768 1.23683929884308452 0.000399999999999067768 1.13012823865159473
0.000600000000019917934 1.76621395850672114 0.000600000000019917934 1.55142503188491743
0.000799999999998135536 2.26270280572927085 0.000799999999998135536 1.94241499866417966
0.001007140329448930061 2.74987067008690778 0.001007140329448930061 2.32114170142355292
0.001267914553963578328 3.33161698064726552 0.001267914553963578328 2.76544520326030918
0.001596209851982166583 4.02338863735542596 0.001596209851982166583 3.28080663269506090
0.002009509145210586212 4.84245946991141629 0.002009509145210586212 3.87537512499659798
0.002529822128153114136 5.80802797479604038 0.002529822128153114136 4.55773311252526003
0.003184857364431081805 6.94131858526775769 0.003184857364431081805 5.33693246698926149
0.004009497869020606231 8.26569582867432295 0.004009497869020606231 6.22257654026217288
0.005047658755856332391 9.80680306234156696 0.005047658755856332391 7.22495398578344616
0.006354625877790454069 11.59273781384378843 0.006354625877790454069 8.35521879632785947
0.007999999999995566213 13.65427280306020563 0.007999999999995566213 9.62560284322714743
0.010071403294347192059 16.02512828116481813 0.010071403294347192059 11.04966841860016658
0.012679145539706837553 18.74230811565695376 0.012679145539706837553 12.64266972764281860
0.015962098519764822413 21.84653685619744223 0.015962098519764822413 14.42211164191956563
0.020095091452077440408 25.38285065699505338 0.020095091452077440408 16.40839384656135636
0.025298221281346400247 29.40132746625516091 0.025298221281346400247 18.62495238034430400
0.031848573644282396344 33.95773820605509741 0.031848573644282396344 21.09691794491284611
0.040094978690177640601 39.11365240980940428 0.040094978690177640601 23.84759063118026390
0.050476587558421215363 44.93545726911040816 0.050476587558421215363 26.89312332578498754
0.063546258777947173257 51.49200405465518315 0.063546258777947173257 30.23750300092426002
0.079999999999998294697 58.85130262539403390 0.079999999999998294697 33.87038150673422621
0.100714032943528764008 67.07715216166397454 0.100714032943528764008 37.76821014646232300
0.126791455396883634421 76.22633679613007018 0.126791455396883634421 41.90043680459552888
0.159620985197506115583 86.34808056001716636 0.159620985197506115583 46.23989128400669557
0.200950914520774404082 97.48598254896427306 0.200950914520774404082 50.76418999318871528
0.252982212813464002465 109.67806604126270997 0.252982212813464002465 55.46631065399889593
0.318485736442795541734 122.96349680095572410 0.318485736442795541734 60.36947321947761935
0.400949786901833249431 137.38935494106993929 0.400949786901833249431 65.49278083448984944
0.504765875584169521062 153.00142869126904088 0.504765875584169521062 70.89189971006700830
0.635462587779429100010 169.86940709240647607 0.635462587779429100010 76.63062356053576707
0.800000000000011368684 188.06438633595357146 0.800000000000011368684 82.79804683256482178
1.007140329435344483500 207.69138954591284119 1.007140329435344483500 89.48632817124921246
1.267914553968893187630 228.85627391192656432 1.267914553968893187630 96.75987334239214022
1.596209851975103788391 251.68330107048237210 1.596209851975103788391 104.66736057678645011
2.009509145207672986544 276.28691188216896535 2.009509145207672986544 113.15412151869998070
2.529822128134725289783 302.74863310088232993 2.529822128134725289783 122.06053799282486239
3.184857364427998049905 331.08793073787575167 3.184857364427998049905 131.11300166340302553
4.009497869018190385759 361.23535772247186060 4.009497869018190385759 139.95013939589631491
5.009497869018204596614 391.94409113578018378 5.009497869018204596614 147.91223561781993112
6.009497869018190385759 417.99495915504905952 6.009497869018190385759 153.76018374286203994
7.009497869018190385759 440.55361876020958789 7.009497869018190385759 158.05363021535870871
8.009497869018204596614 460.37236256227731701 8.009497869018204596614 161.15213660422514863
9.009497869018190385759 477.97978583243713047 9.009497869018190385759 163.29591829611499065
10.009497869018190385759 493.76921173058650538 10.009497869018190385759 164.68650678723471970
11.009497869018204596614 508.02995707635841427 11.009497869018204596614 165.67112837749971277
12.009497869018190385759 520.98943957808364758 12.009497869018190385759 166.18644569621875462
13.009497869018190385759 532.82698706426015178 13.009497869018190385759 166.32276563226787403
14.009497869018204596614 543.68771960682727240 14.009497869018204596614 166.14690587298423452
15.009497869018190385759 553.69105506785263060 15.009497869018190385759 165.66712649713682026
16.009497869018190385759 562.93687909250991197 16.009497869018190385759 164.90113676171824864
17.009497869018190385759 571.49932815068723357 17.009497869018190385759 163.73401820676767215
18.009497869018204596614 579.44620602638553919 18.009497869018204596614 162.38350585032355866
19.009497869018190385759 586.83379881327516614 19.009497869018190385759 160.60910104709986967
20.009497869018190385759 593.70822673065515573 20.009497869018190385759 158.86287851797879966
21.009497869018204596614 600.11035600915010946 21.009497869018204596614 156.99859063848791152
22.009497869018190385759 606.08528498361761194 22.009497869018190385759 155.04448481830650053
23.009497869018190385759 611.67944689034379735 23.009497869018190385759 152.95245247247345333
24.009497869018204596614 616.92403400317687101 24.009497869018204596614 150.85414506833640758
25.009497869018190385759 621.84726772251610782 25.009497869018190385759 148.64232601725677796
26.009497869018190385759 626.47471872420533145 26.009497869018190385759 146.09887192575942549
27.009497869018204596614 630.82728566709067763 27.009497869018204596614 143.49885108351196550
28.009497869018190385759 634.91099394088166719 28.009497869018190385759 140.79341950976416342
29.009497869018190385759 638.73611127258971010 29.009497869018190385759 138.05185888683166695
30.009497869018190385759 642.32294597045222417 30.009497869018190385759 135.30449418734224309
31.009497869018190385759 645.68006317582762676 31.009497869018190385759 132.48255219089855927
32.009497869018190385759 648.83669362943123815 32.009497869018190385759 129.64911795635018166
33.009497869018190385759 651.81628849762137179 33.009497869018190385759 126.86316640505006603
34.009497869018190385759 654.63058124366523316 34.009497869018190385759 124.05405475118055847
35.009497869018190385759 657.28702783682138033 35.009497869018190385759 121.13224678944069979
36.009497869018190385759 659.79569933299092099 36.009497869018190385759 118.41357877474065674
37.009497869018190385759 662.16242716914018729 37.009497869018190385759 115.71363678139178433
38.009497869018190385759 664.39261508057097672 38.009497869018190385759 112.99012261444515559
39.009497869018190385759 666.49122523159792308 39.009497869018190385759 110.21137053628083891
40.009497869018190385759 668.47034980927367087 40.009497869018190385759 107.32286119236161426
41.009497869018190385759 670.33765358583809757 41.009497869018190385759 104.65326523646606915
42.009497869018190385759 672.10014731893829776 42.009497869018190385759 101.91506402483186378
43.009497869018190385759 673.76467738142321195 43.009497869018190385759 99.26738455785054782
44.009497869018190385759 675.33730292488701252 44.009497869018190385759 96.59919287599703352
46.009497869018190385759 678.22837749366226490 46.009497869018190385759 91.45231050878764734
48.009497869018190385759 680.81241412107681299 48.009497869018190385759 86.53249795355507956
50.009497869018218807469 683.12261846304511437 50.009497869018218807469 81.76958845308388391
52.009497869018190385759 685.19078742110684743 52.009497869018190385759 77.18801103572097588
54.009497869018190385759 687.04300229345471962 54.009497869018190385759 72.82479746271053500
56.009497869018190385759 688.70339797331155296 56.009497869018190385759 68.64240761175454963
58.009497869018190385759 690.19232826075312914 58.009497869018190385759 64.65875469582721280
60.009497869018190385759 691.52904313324472696 60.009497869018190385759 60.86882473088689949
62.009497869018190385759 692.72898783973107584 62.009497869018190385759 57.25810619245701361
64.009497869018190385759 693.80800899027485684 64.009497869018190385759 53.82582573487492539
66.009497869018218807469 694.77794682859064324 66.009497869018218807469 50.60344575528568356
68.009497869018190385759 695.65049635739910627 68.009497869018190385759 47.55725740808573931
70.009497869018190385759 696.43595002176675735 70.009497869018190385759 44.63552617610039874
72.009497869018190385759 697.14273888172965599 72.009497869018190385759 41.91654302927131681
74.009497869018218807469 697.77957838022086889 74.009497869018218807469 39.32566116909911358
76.009497869018190385759 698.35357973177849544 76.009497869018190385759 36.87559158336288334
78.009497869018190385759 698.87102191257974937 78.009497869018190385759 34.55443805494809340
80.009497869018218807469 699.33774357293339108 80.009497869018218807469 32.37583554099870042
82.009497869018190385759 699.75862528742436552 82.009497869018190385759 30.30620106516137113
84.009497869018190385759 700.13804563277506077 84.009497869018190385759 28.28788605857376481
86.009497869018218807469 700.48045795719474427 86.009497869018218807469 26.43974719411596297
88.009497869018190385759 700.78947077403529420 88.009497869018190385759 24.63841009448742980
91.009497869018190385759 701.19735429257650594 91.009497869018190385759 22.14620493986802074
94.009497869018190385759 701.54748016976418512 94.009497869018190385759 19.82813081150825241
97.009497869018190385759 701.84728988952417694 97.009497869018190385759 17.73368213435056973
99.504748934509137825444 702.06362013989712523 99.504748934509137825444 15.07167303672603964
nan nan nan nan

