Time Pressure difference Time.1 Pressure.1 difference.1
(hr) (psi) (hr) (psi)
0.000200000000006639311 0.35229644169875318 0.000200000000006639311 0.28238422676536806
0.000399999999999067768 0.65877966864694815 0.000399999999999067768 0.60194198816600719
0.000600000000019917934 0.94074132947831690 0.000600000000019917934 0.82633796435133500
0.000799999999998135536 1.20518696810422199 0.000799999999998135536 1.03459156770955274
0.001007140329448930061 1.46466795690944762 0.001007140329448930061 1.23631336938980807
0.001267914553963578328 1.77452441285001705 0.001267914553963578328 1.47296344510496446
0.001596209851982166583 2.14298384263352171 0.001596209851982166583 1.74746121699336920
0.002009509145210586212 2.57924683344755445 0.002009509145210586212 2.06414717184029328
0.002529822128153114136 3.09353911078610189 0.002529822128153114136 2.42759258414503298
0.003184857364431081805 3.69716547804787909 0.003184857364431081805 2.84261876662796453
0.004009497869020606231 4.40257062032548152 0.004009497869020606231 3.31434076776069420
0.005047658755856332391 5.22341299952087645 0.005047658755856332391 3.84823864926991988
0.006354625877790454069 6.17465824611048131 0.006354625877790454069 4.45025337993883863
0.007999999999995566213 7.27269688247206680 0.007999999999995566213 5.12690004070835315
0.010071403294347192059 8.53548937923094364 0.010071403294347192059 5.88540233664387902
0.012679145539706837553 9.98274516476043949 0.012679145539706837553 6.73388513914449049
0.015962098519764822413 11.63615542024832195 0.015962098519764822413 7.68167209559084263
0.020095091452077440408 13.51970782362052326 0.020095091452077440408 8.73962872248425882
0.025298221281346400247 15.66007547150011625 0.025298221281346400247 9.92023779416233431
0.031848573644282396344 18.08696371817250537 0.031848573644282396344 11.23688471592200244
0.040094978690177640601 20.83316644143532415 0.040094978690177640601 12.70197985197601476
0.050476587558421215363 23.93404355596827671 0.050476587558421215363 14.32412673983916207
0.063546258777947173257 27.42626742279528784 0.063546258777947173257 16.10544896680807980
0.079999999999998294697 31.34606224047303158 0.079999999999998294697 18.04043478148159707
0.100714032943528764008 35.72740946715997268 0.100714032943528764008 20.11654140432624516
0.126791455396883634421 40.60055412509665018 0.126791455396883634421 22.31749581381614433
0.159620985197506115583 45.99171448775651783 0.159620985197506115583 24.62882630495514391
0.200950914520774404082 51.92411281029044545 0.200950914520774404082 27.03861067005630048
0.252982212813464002465 58.41800149145150556 0.252982212813464002465 29.54310862202467547
0.318485736442795541734 65.49424145398273822 0.318485736442795541734 32.15468784111123313
0.400949786901833249431 73.17790905282251401 0.400949786901833249431 34.88352326552828231
0.504765875584169521062 81.49339254503382790 0.504765875584169521062 37.75926447715148271
0.635462587779429100010 90.47781051448177436 0.635462587779429100010 40.81589002276957245
0.800000000000011368684 100.16903103788685314 0.800000000000011368684 44.10085441818716134
1.007140329435344483500 110.62299274761251411 1.007140329435344483500 47.66324426805483228
1.267914553968893187630 121.89607852572088120 1.267914553968893187630 51.53736411710571019
1.596209851975103788391 134.05447404385691357 1.596209851975103788391 55.74914152826730884
2.009509145207672986544 147.15913411829208712 2.009509145207672986544 60.26945840890757466
2.529822128134725289783 161.25348247268047430 2.529822128134725289783 65.01329707828355708
3.184857364427998049905 176.34788731933173267 3.184857364427998049905 69.83492509650730540
4.009497869018190385759 192.40535895533764688 4.009497869018190385759 74.54186372034057229
5.009497869018204596614 208.76180012074186720 5.009497869018204596614 78.78272760275461906
6.009497869018190385759 222.63731508679455828 6.009497869018190385759 81.89752944619809227
7.009497869018190385759 234.65276957122745216 7.009497869018190385759 84.18435461997000857
8.009497869018204596614 245.20885837527615081 8.009497869018204596614 85.83471697025045444
9.009497869018190385759 254.58712803285598625 9.009497869018190385759 86.97656279772019161
10.009497869018190385759 262.99707487965974906 10.009497869018190385759 87.71723414141133901
11.009497869018204596614 270.59279819014460600 11.009497869018204596614 88.24167469369984929
12.009497869018190385759 277.49542781737926589 12.009497869018190385759 88.51614897082809819
13.009497869018190385759 283.80047942580597464 13.009497869018190385759 88.58875727360793917
14.009497869018204596614 289.58524854847854613 14.009497869018204596614 88.49508881234740443
15.009497869018190385759 294.91334090982468297 15.009497869018190385759 88.23954316584340063
16.009497869018190385759 299.83795875874733383 16.009497869018190385759 87.83155284360992709
17.009497869018190385759 304.39858952026071393 17.009497869018190385759 87.20990864486783778
18.009497869018204596614 308.63134763089590251 18.009497869018204596614 86.49058311606708571
19.009497869018190385759 312.56621284159706420 19.009497869018190385759 85.54547908403424117
20.009497869018190385759 316.22775023759095347 20.009497869018190385759 84.61538582115501583
21.009497869018204596614 319.63772646382096809 21.009497869018204596614 83.62240722428934703
22.009497869018190385759 322.82016231759001812 22.009497869018190385759 82.58158875585587566
23.009497869018190385759 325.79978960685679112 23.009497869018190385759 81.46730626428585254
24.009497869018204596614 328.59322232169211020 24.009497869018204596614 80.34968147850339903
25.009497869018190385759 331.21549207115072022 25.009497869018190385759 79.17159680498099306
26.009497869018190385759 333.68021860468195428 26.009497869018190385759 77.81687283624661688
27.009497869018204596614 335.99853320794517231 27.009497869018204596614 76.43201962974426067
28.009497869018190385759 338.17364519377480292 28.009497869018190385759 74.99102133888492006
29.009497869018190385759 340.21102347782147035 29.009497869018190385759 73.53077957551244026
30.009497869018190385759 342.12148490636718634 30.009497869018190385759 72.06744637767913275
31.009497869018190385759 343.90959154417771515 31.009497869018190385759 70.56439095641543702
32.009497869018190385759 345.59091260683391056 32.009497869018190385759 69.05521440622440821
33.009497869018190385759 347.17793892610148987 33.009497869018190385759 67.57132863258456723
34.009497869018190385759 348.67692011504703942 34.009497869018190385759 66.07510705694458863
35.009497869018190385759 350.09182745834908701 35.009497869018190385759 64.51885986890208358
36.009497869018190385759 351.42802511841409796 36.009497869018190385759 63.07081143159869896
37.009497869018190385759 352.68861910272096338 37.009497869018190385759 61.63273706461499302
38.009497869018190385759 353.87648761133573316 38.009497869018190385759 60.18210741358868177
39.009497869018190385759 354.99427364967220910 39.009497869018190385759 58.70205630669273944
40.009497869018190385759 356.04841789841310629 40.009497869018190385759 57.16354501403682065
41.009497869018190385759 357.04300285729902953 41.009497869018190385759 55.74163390489666625
42.009497869018190385759 357.98176267724505806 42.009497869018190385759 54.28318147006834238
43.009497869018190385759 358.86834395263178976 43.009497869018190385759 52.87294377502355047
44.009497869018190385759 359.70597397893976677 44.009497869018190385759 51.45178062658367679
46.009497869018190385759 361.24585159136114498 46.009497869018190385759 48.71038854468058332
48.009497869018190385759 362.62219110027882607 48.009497869018190385759 46.08994101526197085
50.009497869018218807469 363.85267888663241820 50.009497869018218807469 43.55306500764257294
52.009497869018190385759 364.95425098429478794 52.009497869018190385759 41.11277219376296443
54.009497869018190385759 365.94079911630325341 54.009497869018190385759 38.78878685908582469
56.009497869018190385759 366.82517828894276590 56.009497869018190385759 36.56111394899768641
58.009497869018190385759 367.61822957888540486 58.009497869018190385759 34.43929460640902107
60.009497869018190385759 368.33020613202296545 60.009497869018190385759 32.42065822508291006
62.009497869018190385759 368.96933457568837866 62.009497869018190385759 30.49747550882447200
64.009497869018190385759 369.54405531482007063 64.009497869018190385759 28.66933454931232816
66.009497869018218807469 370.06067483712297417 66.009497869018218807469 26.95299321281532201
68.009497869018190385759 370.52542227036201439 68.009497869018190385759 25.33049710367513896
70.009497869018190385759 370.94377969580420995 70.009497869018190385759 23.77429078432295029
72.009497869018190385759 371.32023776226861855 72.009497869018190385759 22.32607449769609076
74.009497869018218807469 371.65943858988606507 74.009497869018218807469 20.94608900164647380
76.009497869018190385759 371.96516983608410101 76.009497869018190385759 19.64110456966485785
78.009497869018190385759 372.24077588185826926 78.009497869018190385759 18.40478490084603891
80.009497869018218807469 372.48936657674130402 80.009497869018218807469 17.24439240394246653
82.009497869018190385759 372.71354146888080550 82.009497869018190385759 16.14203972523332098
84.009497869018190385759 372.91563272650972749 84.009497869018190385759 15.06702141646139381
86.009497869018218807469 373.09801234351630228 86.009497869018218807469 14.08264429497124048
88.009497869018190385759 373.26260232806515660 88.009497869018190385759 13.12319527137962005
91.009497869018190385759 373.47985397057232149 91.009497869018190385759 11.79576810481391469
94.009497869018190385759 373.66634206936913642 94.009497869018190385759 10.56108862170860618
97.009497869018190385759 373.82603019378865383 97.009497869018190385759 9.44551911576988346
99.504748934509137825444 373.94125451661892612 99.504748934509137825444 8.02764900692986849
nan nan nan nan

