Time Pressure difference Time.1 Pressure.1 difference.1
(hr) (psi) (hr) (psi)
0.000200000000006639311 0.50477256962766026 0.000200000000006639311 0.40460190593852141
0.000399999999999067768 0.94390367543288023 0.000399999999999067768 0.86246628739200637
0.000600000000019917934 1.34790012622881372 0.000600000000019917934 1.18398226117533167
0.000799999999998135536 1.72679950963549600 0.000799999999998135536 1.48236934108582141
0.001007140329448930061 2.09858551138211391 0.001007140329448930061 1.77139761424429021
0.001267914553963578328 2.54254980102028139 0.001267914553963578328 2.11047133933023590
0.001596209851982166583 3.07048080219229913 0.001596209851982166583 2.50377348284623036
0.002009509145210586212 3.69556117440608078 0.002009509145210586212 2.95752312170793008
0.002529822128153114136 4.43244240181803129 0.002529822128153114136 3.47827000692717148
0.003184857364431081805 5.29732207823065693 0.003184857364431081805 4.07292214586022627
0.004009497869020606231 6.30803102714619435 0.004009497869020606231 4.74880841230534223
0.005047658755856332391 7.48413917915540594 0.005047658755856332391 5.51378067336105193
0.006354625877790454069 8.84708938424920710 0.006354625877790454069 6.37635118667126122
0.007999999999995566213 10.42036608654594509 0.007999999999995566213 7.34585480141019076
0.010071403294347192059 12.22970316194156837 0.010071403294347192059 8.43264168787907487
0.012679145539706837553 14.30334040405398888 0.012679145539706837553 9.64835321320109784
0.015962098519764822413 16.67235707446646842 0.015962098519764822413 11.00634835830703651
0.020095091452077440408 19.37112286981201237 0.020095091452077440408 12.52219530395471736
0.025298221281346400247 22.43785517161578014 0.025298221281346400247 14.21377944815749395
0.031848573644282396344 25.91511599935783750 0.031848573644282396344 16.10027948427559252
0.040094978690177640601 29.84989262853875047 0.040094978690177640601 18.19947706063757309
0.050476587558421215363 34.29284896853162223 0.050476587558421215363 20.52369938020433437
0.063546258777947173257 39.29652941013158340 0.063546258777947173257 23.07598913228430249
0.079999999999998294697 44.91283621411650273 0.079999999999998294697 25.84844904461295911
0.100714032943528764008 51.19045822863830608 0.100714032943528764008 28.82310774335282488
0.126791455396883634421 58.17273071283610619 0.126791455396883634421 31.97664914034921679
0.159620985197506115583 65.89721937474995173 0.159620985197506115583 35.28833808516299797
0.200950914520774404082 74.39719720842010986 0.200950914520774404082 38.74109236322296113
0.252982212813464002465 83.70168197885837458 0.252982212813464002465 42.32955286752547153
0.318485736442795541734 93.84056334809780253 0.318485736442795541734 46.07144008854870521
0.400949786901833249431 104.84977087607968826 0.400949786901833249431 49.98133274211068056
0.504765875584169521062 116.76424821175794477 0.504765875584169521062 54.10171293663008640
0.635462587779429100010 129.63717909683654739 0.635462587779429100010 58.48126534882992900
0.800000000000011368684 143.52282115112248562 0.800000000000011368684 63.18798310906263538
1.007140329435344483500 158.50132360082821492 1.007140329435344483500 68.29219781490070318
1.267914553968893187630 174.65347219594397643 1.267914553968893187630 73.84306123498348029
1.596209851975103788391 192.07409818536811486 1.596209851975103788391 79.87772254544229611
2.009509145207672986544 210.85053801533945261 2.009509145207672986544 86.35446115900788300
2.529822128134725289783 231.04500947172596170 2.529822128134725289783 93.15146320505054689
3.184857364427998049905 252.67236819469468401 3.184857364427998049905 100.05992232207074721
4.009497869018190385759 275.67961510399169356 4.009497869018190385759 106.80405374949982900
5.009497869018204596614 299.11522744572698684 5.009497869018204596614 112.88039033991522331
6.009497869018190385759 318.99615303937952149 6.009497869018190385759 117.34329811955261391
7.009497869018190385759 336.21197221173889602 7.009497869018190385759 120.61987569066847925
8.009497869018204596614 351.33680300805372099 8.009497869018204596614 122.98452530322447274
9.009497869018190385759 364.77404708264936062 9.009497869018190385759 124.62056922598249287
10.009497869018190385759 376.82387211018442486 10.009497869018190385759 125.68180781131070489
11.009497869018204596614 387.70707250564191781 11.009497869018204596614 126.43322955124978080
12.009497869018190385759 397.59720388853753548 12.009497869018190385759 126.82649803132481736
13.009497869018190385759 406.63112170693540293 13.009497869018190385759 126.93053166673074372
14.009497869018204596614 414.91957548942082212 14.009497869018204596614 126.79632290306692255
15.009497869018190385759 422.55369992020331438 15.009497869018190385759 126.43017548465704181
16.009497869018190385759 429.60972351796806379 16.009497869018190385759 125.84560437078498296
17.009497869018190385759 436.14422411499811005 17.009497869018190385759 124.95490863148060612
18.009497869018204596614 442.20894670434688578 18.009497869018204596614 123.92425446472061878
19.009497869018190385759 447.84684646276264175 19.009497869018190385759 122.57010343068148472
20.009497869018190385759 453.09312039971041486 20.009497869018190385759 121.23745992161541096
21.009497869018204596614 457.97895590171981439 21.009497869018204596614 119.81471390831973167
22.009497869018190385759 462.53877011907655969 22.009497869018190385759 118.32342262449705572
23.009497869018190385759 466.80799894263071792 23.009497869018190385759 116.72687162372973546
24.009497869018204596614 470.81044700242443923 24.009497869018204596614 115.12553176267778099
25.009497869018190385759 474.56765168297283708 25.009497869018190385759 113.43756459211702747
26.009497869018190385759 478.09912744741978941 26.009497869018190385759 111.49650752229010209
27.009497869018204596614 481.42082327225347171 27.009497869018204596614 109.51228109004860301
28.009497869018190385759 484.53733748119913116 28.009497869018190385759 107.44760962587265851
29.009497869018190385759 487.45650597118685710 29.009497869018190385759 105.35536599258206536
30.009497869018190385759 490.19382718797669440 30.009497869018190385759 103.25869293244541325
31.009497869018190385759 492.75583768681582342 31.009497869018190385759 101.10510561936995089
32.009497869018190385759 495.16484513825014346 32.009497869018190385759 98.94274791405672431
33.009497869018190385759 497.43874648502691116 33.009497869018190385759 96.81662699332770217
34.009497869018190385759 499.58649621227090165 34.009497869018190385759 94.67283125747989914
35.009497869018190385759 501.61378440178469873 35.009497869018190385759 92.44303044457316787
36.009497869018190385759 503.52829685938775128 36.009497869018190385759 90.36825748598629104
37.009497869018190385759 505.33448389223860886 37.009497869018190385759 88.30777543843056776
38.009497869018190385759 507.03646940359362816 38.009497869018190385759 86.22930410049762884
39.009497869018190385759 508.63804030832477565 39.009497869018190385759 84.10867751453011465
40.009497869018190385759 510.14842485444557951 40.009497869018190385759 81.90428880469701767
41.009497869018190385759 511.57347247340271679 41.009497869018190385759 79.86696557519779560
42.009497869018190385759 512.91853348024244497 42.009497869018190385759 77.77728570316116929
43.009497869018190385759 514.18883273845460735 43.009497869018190385759 75.75668821520173424
44.009497869018190385759 515.38899433741380562 44.009497869018190385759 73.72043666852404442
46.009497869018190385759 517.59534071884741024 46.009497869018190385759 69.79255275670637104
48.009497869018190385759 519.56736867134816293 48.009497869018190385759 66.03795896455518744
50.009497869018218807469 521.33041935337655559 50.009497869018218807469 62.40310697735348100
52.009497869018190385759 522.90875882137095232 52.009497869018190385759 58.90664000094495378
54.009497869018190385759 524.32229122395233389 54.009497869018190385759 55.57681911627909699
56.009497869018190385759 525.58943529542193573 56.009497869018190385759 52.38499528265479199
58.009497869018190385759 526.72572419899586293 58.009497869018190385759 49.34483910997339962
60.009497869018190385759 527.74584870694991423 60.009497869018190385759 46.45252413672947256
62.009497869018190385759 528.66159598295269006 62.009497869018190385759 43.69697577845403913
64.009497869018190385759 529.48505949257810244 64.009497869018190385759 41.07760385029928329
66.009497869018218807469 530.22527521129279648 66.009497869018218807469 38.61841912903381768
68.009497869018190385759 530.89116827275188371 68.009497869018190385759 36.29369644301279862
70.009497869018190385759 531.49059343766407437 70.009497869018190385759 34.06395418702398814
72.009497869018190385759 532.02998493605684871 72.009497869018190385759 31.98894073286495043
74.009497869018218807469 532.51599402701060626 74.009497869018218807469 30.01168878694405961
76.009497869018190385759 532.95404769004142054 76.009497869018190385759 28.14189883993482866
78.009497869018190385759 533.34893777538979975 78.009497869018190385759 26.37049219982881354
80.009497869018218807469 533.70512009513333851 80.009497869018218807469 24.70787449181479545
82.009497869018190385759 534.02631929829760793 82.009497869018190385759 23.12841660235999441
84.009497869018190385759 534.31587693027574915 84.009497869018190385759 21.58812357101681911
86.009497869018218807469 534.57719159891178151 86.009497869018218807469 20.17770180603586638
88.009497869018190385759 534.81301716965856485 88.009497869018190385759 18.80299717737198861
91.009497869018190385759 535.12429669696621204 91.009497869018190385759 16.90105113832033368
94.009497869018190385759 535.39149802429369629 94.009497869018190385759 15.13199456667735099
97.009497869018190385759 535.62030017884740118 97.009497869018190385759 13.53359952358333018
99.504748934509137825444 535.78539431728995623 99.504748934509137825444 11.50206626486987105
nan nan nan nan

