Time Pressure difference Time.1 Pressure.1 difference.1
(hr) (psi) (hr) (psi)
0.000200000000006639311 0.50894999779009609 0.000200000000006639311 0.40795033550490922
0.000399999999999067768 0.95171529205715233 0.000399999999999067768 0.86960393942559544
0.000600000000019917934 1.35905516175622454 0.000600000000019917934 1.19378073506092064
0.000799999999998135536 1.74109026419799684 0.000799999999998135536 1.49463722528791099
0.001007140329448930061 2.11595311561424149 0.001007140329448930061 1.78605745656907056
0.001267914553963578328 2.56359159247700097 0.001267914553963578328 2.12793730903503819
0.001596209851982166583 3.09589167779664898 0.001596209851982166583 2.52449436684219908
0.002009509145210586212 3.72614512895288996 0.002009509145210586212 2.98199917512896118
0.002529822128153114136 4.46912468376411098 0.002529822128153114136 3.50705568974312065
0.003184857364431081805 5.34116198508498030 0.003184857364431081805 4.10662908775700064
0.004009497869020606231 6.36023542185361013 0.004009497869020606231 4.78810889571752440
0.005047658755856332391 7.54607688270703747 0.005047658755856332391 5.55941196169231588
0.006354625877790454069 8.92030667570506175 0.006354625877790454069 6.42912098959543687
0.007999999999995566213 10.50660359898632557 0.007999999999995566213 7.40664808252530982
0.010071403294347192059 12.33091449845418985 0.010071403294347192059 8.50242906736497162
0.012679145539706837553 14.42171287636340082 0.012679145539706837553 9.72820165358621125
0.015962098519764822413 16.81033520197929576 0.015962098519764822413 11.09743537920337175
0.020095091452077440408 19.53143561080355894 0.020095091452077440408 12.62582726509089603
0.025298221281346400247 22.62354776613949880 0.025298221281346400247 14.33141072634914259
0.031848573644282396344 26.12958592486976173 0.031848573644282396344 16.23352317655925603
0.040094978690177640601 30.09692622270596729 0.040094978690177640601 18.35009342251871090
0.050476587558421215363 34.57665185654705908 0.050476587558421215363 20.69355068541981879
0.063546258777947173257 39.62174206731888404 0.063546258777947173257 23.26696283544803734
0.079999999999998294697 45.28452865175056985 0.079999999999998294697 26.06236724360285706
0.100714032943528764008 51.61410340018565535 0.100714032943528764008 29.06164380743574327
0.126791455396883634421 58.65416020839060707 0.126791455396883634421 32.24128347806245642
0.159620985197506115583 66.44257567302373957 0.159620985197506115583 35.58037950379883085
0.200950914520774404082 75.01289815083462997 0.200950914520774404082 39.06170830002204752
0.252982212813464002465 84.39438555385582674 0.252982212813464002465 42.67986640849809277
0.318485736442795541734 94.61717490684067400 0.318485736442795541734 46.45272097204014727
0.400949786901833249431 105.71749311781276504 0.400949786901833249431 50.39497135790745830
0.504765875584169521062 117.73057302454490980 0.504765875584169521062 54.54945125058840460
0.635462587779429100010 130.71003851005173146 0.635462587779429100010 58.96524823447541053
0.800000000000011368684 144.71059622271798162 0.800000000000011368684 63.71091814168936196
1.007140329435344483500 159.81305869269712616 1.007140329435344483500 68.85737462440333445
1.267914553968893187630 176.09888024170351173 1.267914553968893187630 74.45417622451438433
1.596209851975103788391 193.66367692897117081 1.596209851975103788391 80.53877955961146995
2.009509145207672986544 212.59550798512157144 2.009509145207672986544 87.06911876859967947
2.529822128134725289783 232.95710610183681410 2.529822128134725289783 93.92237186605787258
3.184857364427998049905 254.76344986251282876 3.184857364427998049905 100.88800443783959793
4.009497869018190385759 277.96110157381781391 4.009497869018190385759 107.68794936673705820
5.009497869018204596614 301.59066381079509256 5.009497869018204596614 113.81457288065934108
6.009497869018190385759 321.63612120246403947 6.009497869018190385759 118.31441506950753251
7.009497869018190385759 338.99441611969814403 7.009497869018190385759 121.61810914466022382
8.009497869018204596614 354.24441792949966157 8.009497869018204596614 124.00232827125114454
9.009497869018190385759 367.79286678264372767 9.009497869018190385759 125.65191186785270361
10.009497869018190385759 379.94241450006182959 10.009497869018190385759 126.72193311733533960
11.009497869018204596614 390.91568276086104561 11.009497869018204596614 127.47957351994978126
12.009497869018190385759 400.88766350692543483 12.009497869018190385759 127.87609663572199281
13.009497869018190385759 409.99634478313078034 13.009497869018190385759 127.98099123914508368
14.009497869018204596614 418.35339266588505325 14.009497869018204596614 127.84567178226471640
15.009497869018190385759 426.05069605747394235 15.009497869018190385759 127.47649417832316487
16.009497869018190385759 433.16511433328923886 16.009497869018190385759 126.88708523454320698
17.009497869018190385759 439.75369355594983745 17.009497869018190385759 125.98901822015493224
18.009497869018204596614 445.86860695293461276 18.009497869018204596614 124.94983450167001138
19.009497869018190385759 451.55316519210964543 19.009497869018190385759 123.58447670045264033
20.009497869018190385759 456.84285656853563751 20.009497869018190385759 122.24080441751841875
21.009497869018204596614 461.76912657125126316 21.009497869018204596614 120.80628395445754109
22.009497869018190385759 466.36667718213095668 22.009497869018190385759 119.30265094966530626
23.009497869018190385759 470.67123755456975687 23.009497869018190385759 117.69288711302955619
24.009497869018204596614 474.70680932244448513 24.009497869018204596614 116.07829478416201141
25.009497869018190385759 478.49510811069399097 25.009497869018190385759 114.37635823012075775
26.009497869018190385759 482.05580988146743948 26.009497869018190385759 112.41923723971595450
27.009497869018204596614 485.40499560278249191 27.009497869018204596614 110.41858962320763737
28.009497869018190385759 488.54730165345728210 28.009497869018190385759 108.33683122277643918
29.009497869018190385759 491.49062877922432335 29.009497869018190385759 106.22727246976204185
30.009497869018190385759 494.25060368884277295 30.009497869018190385759 104.11324763257599102
31.009497869018190385759 496.83381703318951850 31.009497869018190385759 101.94183752794404541
32.009497869018190385759 499.26276109801506209 32.009497869018190385759 99.76158444851787976
33.009497869018190385759 501.55548093869606419 33.009497869018190385759 97.61786804430695952
34.009497869018190385759 503.72100514644137093 34.009497869018190385759 95.45633055064524797
35.009497869018190385759 505.76507089338565493 35.009497869018190385759 93.20807621376961549
36.009497869018190385759 507.69542759201721083 36.009497869018190385759 91.11613272035307887
37.009497869018190385759 509.51656237962265550 37.009497869018190385759 89.03859840757620248
38.009497869018190385759 511.23263328831308172 38.009497869018190385759 86.94292592753622273
39.009497869018190385759 512.84745857294535654 39.009497869018190385759 84.80474932844346370
40.009497869018190385759 514.37034285324102711 40.009497869018190385759 82.58211740170141013
41.009497869018190385759 515.80718396973429662 41.009497869018190385759 80.52793356616494691
42.009497869018190385759 517.16337651594096769 42.009497869018190385759 78.42095979173905107
43.009497869018190385759 518.44418859560050805 43.009497869018190385759 76.38364011767237116
44.009497869018190385759 519.65428256641303051 44.009497869018190385759 74.33053683405665879
46.009497869018190385759 521.87888836617582911 46.009497869018190385759 70.37014629676185962
48.009497869018190385759 523.86723655000753297 48.009497869018190385759 66.58448000426184876
50.009497869018218807469 525.64487799630092013 50.009497869018218807469 62.91954648337296874
52.009497869018190385759 527.23627958403062621 52.009497869018190385759 59.39414322853898653
54.009497869018190385759 528.66151018580569598 54.009497869018190385759 56.03676520551726270
56.009497869018190385759 529.93914096683238313 56.009497869018190385759 52.81852627809745115
58.009497869018190385759 531.08483364064272791 58.009497869018190385759 49.75321019226283425
60.009497869018190385759 532.11340055831783502 60.009497869018190385759 46.83695881924033699
62.009497869018190385759 533.03672643246682128 62.009497869018190385759 44.05860592282745358
64.009497869018190385759 533.86700481251682504 64.009497869018190385759 41.41755643388796670
66.009497869018218807469 534.61334645442070723 66.009497869018218807469 38.93801983906719499
68.009497869018190385759 535.28475035500923696 68.009497869018190385759 36.59405806874807610
70.009497869018190385759 535.88913627990689292 70.009497869018190385759 34.34586277339936089
72.009497869018190385759 536.43299170794148267 72.009497869018190385759 32.25367679410246069
74.009497869018218807469 536.92302294309627086 74.009497869018218807469 30.26006138380152777
76.009497869018190385759 537.36470187782106223 76.009497869018190385759 28.37479731309291253
78.009497869018190385759 537.76286001904816203 78.009497869018190385759 26.58873075596532587
80.009497869018218807469 538.12199005454124290 80.009497869018218807469 24.91235345312636795
82.009497869018190385759 538.44584745800761993 82.009497869018190385759 23.31982418803469770
84.009497869018190385759 538.73780142900909595 84.009497869018190385759 21.76678390401833596
86.009497869018218807469 539.00127870179926504 86.009497869018218807469 20.34468968305133529
88.009497869018190385759 539.23905593244194279 88.009497869018190385759 18.95860818849506302
91.009497869018190385759 539.55291156618261539 91.009497869018190385759 17.04092190636160353
94.009497869018190385759 539.82232421483956841 94.009497869018190385759 15.25722486653950760
97.009497869018190385759 540.05301990446548643 97.009497869018190385759 13.64560172653712300
99.504748934509137825444 540.21948033922615195 99.504748934509137825444 11.59725577878603708
nan nan nan nan

