Time Pressure difference Time.1 Pressure.1 difference.1
(hr) (psi) (hr) (psi)
0.000200000000006639311 0.07171251678848137 0.000200000000006639311 0.05748137422298994
0.000399999999999067768 0.13409941871667125 0.000399999999999067768 0.12252969324327814
0.000600000000019917934 0.19149477655388661 0.000600000000019917934 0.16820713503594370
0.000799999999998135536 0.24532461998959459 0.000799999999998135536 0.21059867880253738
0.001007140329448930061 0.29814387265152786 0.001007140329448930061 0.25166062657539573
0.001267914553963578328 0.36121742000701929 0.001267914553963578328 0.29983247993243350
0.001596209851982166583 0.43622003120800940 0.001596209851982166583 0.35570850859746445
0.002009509145210586212 0.52502455305355356 0.002009509145210586212 0.42017225039436801
0.002529822128153114136 0.62971250674104440 0.002529822128153114136 0.49415422167379131
0.003184857364431081805 0.75258506766587263 0.003184857364431081805 0.57863583589462519
0.004009497869020606231 0.89617544247732139 0.004009497869020606231 0.67465829857579351
0.005047658755856332391 1.06326391096966466 0.005047658755856332391 0.78333711635336312
0.006354625877790454069 1.25689683665885288 0.006354625877790454069 0.90588161686502056
0.007999999999995566213 1.48041063022652741 0.007999999999995566213 1.04361799247620635
0.010071403294347192059 1.73746127679997464 0.010071403294347192059 1.19801668117454452
0.012679145539706837553 2.03206077464491131 0.012679145539706837553 1.37073155994443185
0.015962098519764822413 2.36862452230351206 0.015962098519764822413 1.56366052538706879
0.020095091452077440408 2.75203538702156880 0.020095091452077440408 1.77901533283770474
0.025298221281346400247 3.18772287265713850 0.025298221281346400247 2.01933694228996119
0.031848573644282396344 3.68173372128807896 0.031848573644282396344 2.28735005086949839
0.040094978690177640601 4.24074336653722916 0.040094978690177640601 2.58558087895954447
0.050476587558421215363 4.87194957759828640 0.050476587558421215363 2.91578073953247774
0.063546258777947173257 5.58281728171524616 0.063546258777947173257 3.27838190431073562
0.079999999999998294697 6.38072017938482627 0.079999999999998294697 3.67226241599328906
0.100714032943528764008 7.27257544489620056 0.100714032943528764008 4.09486910009012561
0.126791455396883634421 8.26453967368568243 0.126791455396883634421 4.54288946407719951
0.159620985197506115583 9.36194978703344027 0.159620985197506115583 5.01337768658177829
0.200950914520774404082 10.56953284478244370 0.200950914520774404082 5.50390691505098673
0.252982212813464002465 11.89141137078953747 0.252982212813464002465 6.01371578669672235
0.318485736442795541734 13.33183175841941015 0.318485736442795541734 6.54532183326967765
0.400949786901833249431 14.89589848308442477 0.400949786901833249431 7.10079623784469049
0.504765875584169521062 16.58857595284285225 0.504765875584169521062 7.68617438961779165
0.635462587779429100010 18.41741992686091223 0.635462587779429100010 8.30837287024756144
0.800000000000011368684 20.39013872905601943 0.800000000000011368684 8.97705139342544989
1.007140329435344483500 22.51811907708318117 1.007140329435344483500 9.70220189646175513
1.267914553968893187630 24.81283811887204038 1.267914553968893187630 10.49080732028041041
1.596209851975103788391 27.28776843185229595 1.596209851975103788391 11.34814540990421428
2.009509145207672986544 29.95531781459305520 2.009509145207672986544 12.26828896465905139
2.529822128134725289783 32.82432548356934632 2.529822128134725289783 13.23393201395890628
3.184857364427998049905 35.89690196421179280 3.184857364427998049905 14.21540965403211842
4.009497869018190385759 39.16551773201537401 4.009497869018190385759 15.17354142923928428
5.009497869018204596614 42.49499093366880231 5.009497869018204596614 16.03680028277416270
6.009497869018190385759 45.31945346628426563 6.009497869018190385759 16.67084097422609545
7.009497869018190385759 47.76528708663325062 7.009497869018190385759 17.13634096019152508
8.009497869018204596614 49.91405615148902086 8.009497869018204596614 17.47228428445809456
9.009497869018190385759 51.82307151656949884 9.009497869018190385759 17.70471535210510083
10.009497869018190385759 53.53497769289516839 10.009497869018190385759 17.85548442008965964
11.009497869018204596614 55.08114271459464817 11.009497869018204596614 17.96223812934997000
12.009497869018190385759 56.48622344899222725 12.009497869018190385759 18.01810937548476943
13.009497869018190385759 57.76966280801979536 13.009497869018190385759 18.03288932644588272
14.009497869018204596614 58.94719486263495867 14.009497869018204596614 18.01382242622882046
15.009497869018190385759 60.03176702314612356 15.009497869018190385759 17.96180424126852060
16.009497869018190385759 61.03420899634581787 16.009497869018190385759 17.87875482784945191
17.009497869018190385759 61.96255873633766953 17.009497869018190385759 17.75221460557586539
18.009497869018204596614 62.82416760075550144 18.009497869018204596614 17.60579063429823776
19.009497869018190385759 63.62513818712352531 19.009497869018190385759 17.41340779773819492
20.009497869018190385759 64.37047089816574896 20.009497869018190385759 17.22408051300191190
21.009497869018204596614 65.06459649362362541 21.009497869018204596614 17.02195245869921436
22.009497869018190385759 65.71240458243433125 22.009497869018190385759 16.81008624872164958
23.009497869018190385759 66.31892950495304717 23.009497869018190385759 16.58326589964712028
24.009497869018204596614 66.88755316034443865 24.009497869018204596614 16.35576520214594609
25.009497869018190385759 67.42133534254648453 25.009497869018190385759 16.11595745239731414
26.009497869018190385759 67.92304845115067735 26.009497869018190385759 15.84019348247707626
27.009497869018204596614 68.39495834074773484 27.009497869018204596614 15.55829648589656067
28.009497869018190385759 68.83771829043242008 28.009497869018190385759 15.26497074684811395
29.009497869018190385759 69.25244153797551405 29.009497869018190385759 14.96772785825648455
30.009497869018190385759 69.64132993153323525 30.009497869018190385759 14.66985568557500308
31.009497869018190385759 70.00531211274763166 31.009497869018190385759 14.36389776385531647
32.009497869018190385759 70.34755730929623496 32.009497869018190385759 14.05669384158323076
33.009497869018190385759 70.67060812132106662 33.009497869018190385759 13.75463804181069349
34.009497869018190385759 70.97573670326055151 34.009497869018190385759 13.45007119933852380
35.009497869018190385759 71.26375143915009858 35.009497869018190385759 13.13328570453935740
36.009497869018190385759 71.53574424347164040 36.009497869018190385759 12.83852485662977649
37.009497869018190385759 71.79234736675941519 37.009497869018190385759 12.54579430366668902
38.009497869018190385759 72.03414668768296281 38.009497869018190385759 12.25050803082931772
39.009497869018190385759 72.26168020932063030 39.009497869018190385759 11.94923280551255296
40.009497869018190385759 72.47625897932122996 40.009497869018190385759 11.63605758190868045
41.009497869018190385759 72.67871402035927986 41.009497869018190385759 11.34661717826947935
42.009497869018190385759 72.86980544615857980 42.009497869018190385759 11.04973852058703443
43.009497869018190385759 73.05027554767011111 43.009497869018190385759 10.76267432574590188
44.009497869018190385759 73.22078126448774071 44.009497869018190385759 10.47338617497652002
46.009497869018190385759 73.53423461247074044 46.009497869018190385759 9.91535577095276643
48.009497869018190385759 73.81439858365359896 48.009497869018190385759 9.38194451496439363
50.009497869018218807469 74.06487337020384132 50.009497869018218807469 8.86554485333435771
52.009497869018190385759 74.28910642565683986 52.009497869018190385759 8.36880540703080023
54.009497869018190385759 74.48992551181667920 54.009497869018190385759 7.89574119858861589
56.009497869018190385759 74.66994735921166182 56.009497869018190385759 7.44228208843233574
58.009497869018190385759 74.83137874827113478 58.009497869018190385759 7.01037024596863478
60.009497869018190385759 74.97630678181495512 60.009497869018190385759 6.59946204976984241
62.009497869018190385759 75.10640604999190373 62.009497869018190385759 6.20798414507691820
64.009497869018190385759 75.22339465894559396 64.009497869018190385759 5.83585268493907083
66.009497869018218807469 75.32855634036297943 66.009497869018218807469 5.48647885557307902
68.009497869018190385759 75.42315907874957759 68.009497869018190385759 5.15620790845561139
70.009497869018190385759 75.50831879183365913 70.009497869018190385759 4.83943073277720170
72.009497869018190385759 75.58494958401909969 72.009497869018190385759 4.54463571791046927
74.009497869018218807469 75.65399639280289534 74.009497869018218807469 4.26372957938653574
76.009497869018190385759 75.71623022355072408 76.009497869018190385759 3.99809045588039647
78.009497869018190385759 75.77233184946916822 78.009497869018190385759 3.74642854701016237
80.009497869018218807469 75.82293430317065486 80.009497869018218807469 3.51022216918196417
82.009497869018190385759 75.86856674168917891 82.009497869018190385759 3.28583022074907483
84.009497869018190385759 75.90970389492193249 84.009497869018190385759 3.06700238319273444
86.009497869018218807469 75.94682859956954246 86.009497869018218807469 2.86662522209888859
88.009497869018190385759 75.98033209444803049 88.009497869018190385759 2.67132235761284775
91.009497869018190385759 76.02455525487934551 91.009497869018190385759 2.40111485137516478
94.009497869018190385759 76.06251627103758040 94.009497869018190385759 2.14978681430036866
97.009497869018190385759 76.09502195644314781 97.009497869018190385759 1.92270448404011463
99.504748934509137825444 76.11847670990464110 99.504748934509137825444 1.63408665556082333
nan nan nan nan

