Time Pressure difference Time.1 Pressure.1 difference.1
(hr) (psi) (hr) (psi)
0.000200000000006639311 0.30982592204732246 0.000200000000006639311 0.24834185950709245
0.000399999999999067768 0.57936156630018165 0.000399999999999067768 0.52937585915785224
0.000600000000019917934 0.82733180161630626 0.000600000000019917934 0.72672014651451400
0.000799999999998135536 1.05989763005213211 0.000799999999998135536 0.90986807832164207
0.001007140329448930061 1.28809731388281468 0.001007140329448930061 1.08727163908787472
0.001267914553963578328 1.56059953304003485 0.001267914553963578328 1.29539275310614466
0.001596209851982166583 1.88463994065596263 0.001596209851982166583 1.53679889636768641
0.002009509145210586212 2.26830996222166359 0.002009509145210586212 1.81530729539314328
0.002529822128153114136 2.72060257766761904 0.002529822128153114136 2.13493814218288502
0.003184857364431081805 3.25145975836226553 0.003184857364431081805 2.49993152401075935
0.004009497869020606231 3.87182594080007769 0.004009497869020606231 2.91478585307017601
0.005047658755856332391 4.59371301341262850 0.005047658755856332391 3.38432055123540421
0.006354625877790454069 5.43028244964261653 0.006354625877790454069 3.91376038354304967
0.007999999999995566213 6.39594883932820135 0.007999999999995566213 4.50883501603797932
0.010071403294347192059 7.50650745801930785 0.010071403294347192059 5.17589731187060487
0.012679145539706837553 8.77929169628141359 0.012679145539706837553 5.92209266189584671
0.015962098519764822413 10.23337779053458974 0.015962098519764822413 6.75562071647811191
0.020095091452077440408 11.88986162353978671 0.020095091452077440408 7.68603711759979280
0.025298221281346400247 13.77220076050899777 0.025298221281346400247 8.72431979921391054
0.031848573644282396344 15.90651947546791334 0.031848573644282396344 9.88224051103812329
0.040094978690177640601 18.32165823406861094 0.040094978690177640601 11.17071350618443937
0.050476587558421215363 21.04871419447803049 0.050476587558421215363 12.59730513681507347
0.063546258777947173257 24.11993874139111327 0.063546258777947173257 14.16388298464346818
0.079999999999998294697 27.56718912452668135 0.079999999999998294697 15.86559975841761094
0.100714032943528764008 31.42035022309523384 0.100714032943528764008 17.69142475281656246
0.126791455396883634421 35.70602092029250230 0.126791455396883634421 19.62704671373159115
0.159620985197506115583 40.44725878863962265 0.159620985197506115583 21.65973854882418692
0.200950914520774404082 45.66448656240958570 0.200950914520774404082 23.77901531259892209
0.252982212813464002465 51.37551514564410837 0.252982212813464002465 25.98158762213632400
0.318485736442795541734 57.59869060676346919 0.318485736442795541734 28.27833219228162065
0.400949786901833249431 64.35606626186960000 0.400949786901833249431 30.67819733826104311
0.504765875584169521062 71.66909028169969531 0.504765875584169521062 33.20725828524191314
0.635462587779429100010 79.57040648012726081 0.635462587779429100010 35.89539735204044035
0.800000000000011368684 88.09331780999930572 0.800000000000011368684 38.78434825314879220
1.007140329435344483500 97.28701931361179334 1.007140329435344483500 41.91728003811146408
1.267914553968893187630 107.20109672716560567 1.267914553968893187630 45.32436172354157833
1.596209851975103788391 117.89375681722594891 1.596209851975103788391 49.02839521754733454
2.009509145207672986544 129.41860609217388856 2.009509145207672986544 53.00377271139104352
2.529822128134725289783 141.81383339988698822 2.529822128134725289783 57.17572569137585958
3.184857364427998049905 155.08855702984706681 3.184857364427998049905 61.41609025285720946
4.009497869018190385759 169.21024651210527168 4.009497869018190385759 65.55559161176195460
5.009497869018204596614 183.59486374254967700 5.009497869018204596614 69.28520510518933406
6.009497869018190385759 195.79763876210191142 6.009497869018190385759 72.02450712165642699
7.009497869018190385759 206.36458984030869601 7.009497869018190385759 74.03564783772065994
8.009497869018204596614 215.64810667390884191 8.009497869018204596614 75.48705346197915844
9.009497869018190385759 223.89579441624690048 9.009497869018190385759 76.49124593870649846
10.009497869018190385759 231.29189391590631431 10.009497869018190385759 77.14262686349415787
11.009497869018204596614 237.97192726208365343 11.009497869018204596614 77.60384434524986830
12.009497869018190385759 244.04242169710232702 12.009497869018190385759 77.84522982612351427
13.009497869018190385759 249.58737815115347303 13.009497869018190385759 77.90908495406232248
14.009497869018204596614 254.67477392109279322 14.009497869018204596614 77.82670854050314801
15.009497869018190385759 259.36054684757306177 15.009497869018190385759 77.60196978023778058
16.009497869018190385759 263.69148546964936486 16.009497869018190385759 77.24316406206801844
17.009497869018190385759 267.70231687058503667 17.009497869018190385759 76.69646116001223390
18.009497869018204596614 271.42480177025430521 18.009497869018204596614 76.06385274041471689
19.009497869018190385759 274.88530575990262150 19.009497869018190385759 75.23268417469414260
20.009497869018190385759 278.10543252120157831 20.009497869018190385759 74.41471677947428986
21.009497869018204596614 281.10432465691764037 21.009497869018204596614 73.54144508855486606
22.009497869018190385759 283.90310717653665051 22.009497869018190385759 72.62610078331198338
23.009497869018190385759 286.52353038547681763 23.009497869018190385759 71.64614878973756618
24.009497869018204596614 288.98020540148809232 24.009497869018204596614 70.66325742674705168
25.009497869018190385759 291.28635172265228448 25.009497869018190385759 69.62719481860976600
26.009497869018190385759 293.45394719186458588 26.009497869018190385759 68.43578737575046489
27.009497869018204596614 295.49278118090040834 27.009497869018204596614 67.21788287596086775
28.009497869018190385759 297.40567610914979468 28.009497869018190385759 65.95060177036322102
29.009497869018190385759 299.19744159610780798 29.009497869018190385759 64.66639705751587996
30.009497869018190385759 300.87759048089606040 30.009497869018190385759 63.37947359301821848
31.009497869018190385759 302.45013485604562220 31.009497869018190385759 62.05761655257879994
32.009497869018190385759 303.92876701589148070 32.009497869018190385759 60.73037630586929936
33.009497869018190385759 305.32447198046480707 33.009497869018190385759 59.42537794762871783
34.009497869018190385759 306.64274595098009968 34.009497869018190385759 58.10953090976352797
35.009497869018190385759 307.88708146040579550 35.009497869018190385759 56.74089454873800520
36.009497869018190385759 309.06219600334839015 36.009497869018190385759 55.46741321553641058
37.009497869018190385759 310.17082114764991729 37.009497869018190385759 54.20270354496773280
38.009497869018190385759 311.21548811668856160 38.009497869018190385759 52.92695217202957281
39.009497869018190385759 312.19852129269588659 39.009497869018190385759 51.62532619857365290
40.009497869018190385759 313.12558491065971111 40.009497869018190385759 50.27228761115885902
41.009497869018190385759 314.00026931126097907 41.009497869018190385759 49.02179266339726382
42.009497869018190385759 314.82585848097636472 42.009497869018190385759 47.73916156952650880
43.009497869018190385759 315.60555940498250038 43.009497869018190385759 46.49893276657210350
44.009497869018190385759 316.34221031744704078 44.009497869018190385759 45.24909561033545202
46.009497869018190385759 317.69645051018915183 46.009497869018190385759 42.83818755411632395
48.009497869018190385759 318.90686766724121526 48.009497869018190385759 40.53364377824422604
50.009497869018218807469 319.98901601690005236 50.009497869018218807469 38.30259669644455300
52.009497869018190385759 320.95778989725528163 52.009497869018190385759 36.15648937989035261
54.009497869018190385759 321.82540633746037884 54.009497869018190385759 34.11266828516441052
56.009497869018190385759 322.60317062960382373 56.009497869018190385759 32.15354882866397901
58.009497869018190385759 323.30061692214229652 58.009497869018190385759 30.28752193646643320
60.009497869018190385759 323.92676230978304375 60.009497869018190385759 28.51223895288912402
62.009497869018190385759 324.48884167229510922 62.009497869018190385759 26.82090237436144164
64.009497869018190385759 324.99427789544449752 64.009497869018190385759 25.21314994949404564
66.009497869018218807469 325.44861719865559735 66.009497869018218807469 23.70371932747592680
68.009497869018190385759 325.85733776741324164 68.009497869018190385759 22.27682057536647875
70.009497869018190385759 326.22526079966974066 70.009497869018190385759 20.90822015617334273
72.009497869018190385759 326.55633558144177186 72.009497869018190385759 19.63459120844814620
74.009497869018218807469 326.85464460968239564 74.009497869018218807469 18.42096760026221602
76.009497869018190385759 327.12351892699098244 76.009497869018190385759 17.27330342589103296
78.009497869018190385759 327.36589973799783593 78.009497869018190385759 16.18602624679147439
80.009497869018218807469 327.58452198942666200 80.009497869018218807469 15.16552296394149657
82.009497869018190385759 327.78167184516200905 82.009497869018190385759 14.19606260420716914
84.009497869018190385759 327.95940032272096687 84.009497869018190385759 13.25064136427928929
86.009497869018218807469 328.11979346415961345 86.009497869018218807469 12.38493421198063515
88.009497869018190385759 328.26454157310075743 88.009497869018190385759 11.54114999162832333
91.009497869018190385759 328.45560280020691835 91.009497869018190385759 10.37374862972765399
94.009497869018190385759 328.61960913215273195 94.009497869018190385759 9.28791390644333958
97.009497869018190385759 328.76004631667188960 97.009497869018190385759 8.30683005240632077
99.504748934509137825444 328.86137996026758401 99.504748934509137825444 7.05988894878219764
nan nan nan nan

