Time Pressure difference Time.1 Pressure.1 difference.1
(hr) (psi) (hr) (psi)
0.000200000000006639311 0.23045478696104207 0.000200000000006639311 0.18472169774572497
0.000399999999999067768 0.43094085043901148 0.000399999999999067768 0.39376047051966084
0.000600000000019917934 0.61538612659549974 0.000600000000019917934 0.54054914268832388
0.000799999999998135536 0.78837329336461959 0.000799999999998135536 0.67677827848194050
0.001007140329448930061 0.95811283347238563 0.001007140329448930061 0.80873463491704833
0.001267914553963578328 1.16080549536236299 0.001267914553963578328 0.96353932871490766
0.001596209851982166583 1.40183330417331176 0.001596209851982166583 1.14310210044427918
0.002009509145210586212 1.68721482583229343 0.002009509145210586212 1.35026228039355156
0.002529822128153114136 2.02363922069209412 0.002529822128153114136 1.58801016867985356
0.003184857364431081805 2.41850152813013430 0.003184857364431081805 1.85949962797204793
0.004009497869020606231 2.87994244135915878 0.004009497869020606231 2.16807666823871514
0.005047658755856332391 3.41689664593164055 0.005047658755856332391 2.51732607294139044
0.006354625877790454069 4.03915391198136220 0.006354625877790454069 2.91113412798370685
0.007999999999995566213 4.75743610296097685 0.007999999999995566213 3.35376267485072166
0.010071403294347192059 5.58349206427953071 0.010071403294347192059 3.84993710163858438
0.012679145539706837553 6.53021472240257950 0.012679145539706837553 4.40497229457870887
0.015962098519764822413 7.61179336779089777 0.015962098519764822413 5.02496731944776442
0.020095091452077440408 8.84391954470038222 0.020095091452077440408 5.71702985601242997
0.025298221281346400247 10.24404146455837683 0.025298221281346400247 6.48932551357259424
0.031848573644282396344 11.83159089074130144 0.031848573644282396344 7.35061035764858151
0.040094978690177640601 13.62801994489148605 0.040094978690177640601 8.30900263044280685
0.050476587558421215363 15.65645932218478187 0.050476587558421215363 9.37013033772087489
0.063546258777947173257 17.94089825483249001 0.063546258777947173257 10.53538262453255747
0.079999999999998294697 20.50503280947939544 0.079999999999998294697 11.80115397760950202
0.100714032943528764008 23.37109196369555519 0.100714032943528764008 13.15923953524108292
0.126791455396883634421 26.55886050475689686 0.126791455396883634421 14.59899429718012698
0.159620985197506115583 30.08548912143756127 0.159620985197506115583 16.11095159474338345
0.200950914520774404082 33.96616865653387407 0.200950914520774404082 17.68731251341627697
0.252982212813464002465 38.21414722069258829 0.252982212813464002465 19.32563034365645649
0.318485736442795541734 42.84307099064878344 0.318485736442795541734 21.03399540594430661
0.400949786901833249431 47.86934366894121240 0.400949786901833249431 22.81906363812225536
0.504765875584169521062 53.30891883874742376 0.504765875584169521062 24.70023032003387442
0.635462587779429100010 59.18607762903847203 0.635462587779429100010 26.69972252477614560
0.800000000000011368684 65.52559144968486748 0.800000000000011368684 28.84858263324100847
1.007140329435344483500 72.36405256810225239 1.007140329435344483500 31.17892065756156228
1.267914553968893187630 79.73834385773442079 1.267914553968893187630 33.71317692245452236
1.596209851975103788391 87.69176068876805630 1.596209851975103788391 36.46831194833296053
2.009509145207672986544 96.26417666631361669 2.009509145207672986544 39.42527812914704555
2.529822128134725289783 105.48399742778110522 2.529822128134725289783 42.52846113223687041
3.184857364427998049905 115.35800534130197548 3.184857364427998049905 45.68253005324884697
4.009497869018190385759 125.86200358540862965 4.009497869018190385759 48.76157488425440789
5.009497869018204596614 136.56157280625606631 5.009497869018204596614 51.53573683105094716
6.009497869018190385759 145.63824366349604134 6.009497869018190385759 53.57328507251298078
7.009497869018190385759 153.49815558908358071 7.009497869018190385759 55.06921221187761262
8.009497869018204596614 160.40342316643557297 8.009497869018204596614 56.14879706947213833
9.009497869018190385759 166.53822011635440958 9.009497869018190385759 56.89573574317270044
10.009497869018190385759 172.03958850823593707 10.009497869018190385759 57.38024604902599179
11.009497869018204596614 177.00833241292065168 11.009497869018204596614 57.72330893994990220
12.009497869018190385759 181.52368894773229613 12.009497869018190385759 57.90285634257726599
13.009497869018190385759 185.64813970344221161 13.009497869018190385759 57.95035307819016879
14.009497869018204596614 189.43224756827351030 14.009497869018204596614 57.88907983574503646
15.009497869018190385759 192.91762023943076088 15.009497869018190385759 57.72191460058135704
16.009497869018190385759 196.13905997854817542 16.009497869018190385759 57.45502765066183315
17.009497869018190385759 199.12239749250258569 17.009497869018190385759 57.04837897520010870
18.009497869018204596614 201.89125704708803255 18.009497869018204596614 56.57783203837589525
19.009497869018190385759 204.46524990230957997 19.009497869018190385759 55.95959204904215767
20.009497869018190385759 206.86044531352297327 20.009497869018190385759 55.35117135731682936
21.009497869018204596614 209.09108193581963064 21.009497869018204596614 54.70161421193631668
22.009497869018190385759 211.17287297850253935 22.009497869018190385759 54.02076260511520189
23.009497869018190385759 213.12199675863556081 23.009497869018190385759 53.29185449304074496
24.009497869018204596614 214.94932132110687917 24.009497869018204596614 52.56076001854668078
25.009497869018190385759 216.66467959595033221 25.009497869018190385759 51.79011569653894753
26.009497869018190385759 218.27698094495991654 26.009497869018190385759 50.90392274465934008
27.009497869018204596614 219.79350690084950770 27.009497869018204596614 49.99802074593943502
28.009497869018190385759 221.21635683624401736 28.009497869018190385759 49.05539142919151629
29.009497869018190385759 222.54910824339705755 29.009497869018190385759 48.10017399109608505
30.009497869018190385759 223.79883696444176167 30.009497869018190385759 47.14293429053714135
31.009497869018190385759 224.96852727494626834 31.009497869018190385759 46.15971028967096856
32.009497869018190385759 226.06836378035973212 32.009497869018190385759 45.17248215110727472
33.009497869018190385759 227.10651736075018903 33.009497869018190385759 44.20179797902271446
34.009497869018190385759 228.08707620174024555 34.009497869018190385759 43.22304433962185755
35.009497869018190385759 229.01263811998722986 35.009497869018190385759 42.20502493400512378
36.009497869018190385759 229.88671208338945462 36.009497869018190385759 41.25778376256753432
37.009497869018190385759 230.71132988735305958 37.009497869018190385759 40.31706713120072294
38.009497869018190385759 231.48837430702002393 38.009497869018190385759 39.36813745829615385
39.009497869018190385759 232.21957426490413923 39.009497869018190385759 38.39996173421995707
40.009497869018190385759 232.90914293354691722 40.009497869018190385759 37.39354426807546616
41.009497869018190385759 233.55975088096042214 41.009497869018190385759 36.46340083502133922
42.009497869018190385759 234.17384080270377922 42.009497869018190385759 35.50935388654668401
43.009497869018190385759 234.75379811921166606 43.009497869018190385759 34.58684661963003037
44.009497869018190385759 235.30173396646063111 44.009497869018190385759 33.65719246521580743
46.009497869018190385759 236.30904521094967663 46.009497869018190385759 31.86391029306179945
48.009497869018190385759 237.20937797271201930 48.009497869018190385759 30.14974402381761465
50.009497869018218807469 238.01430180133465342 50.009497869018218807469 28.49024608207449205
52.009497869018190385759 238.73489540672250087 52.009497869018190385759 26.89392805560383337
54.009497869018190385759 239.38024606224581703 54.009497869018190385759 25.37369258963914476
56.009497869018190385759 239.95876287280643169 56.009497869018190385759 23.91645991525342652
58.009497869018190385759 240.47753753085191875 58.009497869018190385759 22.52847137296716795
60.009497869018190385759 240.94327713379371403 60.009497869018190385759 21.20797998518269623
62.009497869018190385759 241.36136313152738353 62.009497869018190385759 19.94992963126660257
64.009497869018190385759 241.73731681661155335 64.009497869018190385759 18.75405086130905730
66.009497869018218807469 242.07526357922469629 66.009497869018218807469 17.63130583684164421
68.009497869018190385759 242.37927820452534888 68.009497869018190385759 16.56994968639618904
70.009497869018190385759 242.65294679705769454 70.009497869018190385759 15.55195701504129602
72.009497869018190385759 242.89920691563418131 72.009497869018190385759 14.60460604493558634
74.009497869018218807469 243.12109520405587659 74.009497869018218807469 13.70188825997032289
76.009497869018190385759 243.32108935917753456 76.009497869018190385759 12.84823243588748731
78.009497869018190385759 243.50137710848832739 78.009497869018190385759 12.03949368019770638
80.009497869018218807469 243.66399276067465962 80.009497869018218807469 11.28042269902165096
82.009497869018190385759 243.81063681067107041 82.009497869018190385759 10.55931847638780319
84.009497869018190385759 243.94283484678797436 84.009497869018190385759 9.85609503725043723
86.009497869018218807469 244.06213850929623277 86.009497869018218807469 9.21216454868672052
88.009497869018190385759 244.16980508021649143 88.009497869018190385759 8.58454078028983147
91.009497869018190385759 244.31192028509772740 91.009497869018190385759 7.71620403694349033
94.009497869018190385759 244.43391151178101950 94.009497869018190385759 6.90853820906234883
97.009497869018190385759 244.53837152992895199 97.009497869018190385759 6.17878819628425191
99.504748934509137825444 244.61374554347997901 99.504748934509137825444 5.25128818437507316
nan nan nan nan

