Time Pressure difference Time.1 Pressure.1 difference.1
(hr) (psi) (hr) (psi)
0.000200000000006639311 0.11766422657527527 0.000200000000006639311 0.09431409945325533
0.000399999999999067768 0.22002720158366451 0.000399999999999067768 0.20104386561275736
0.000600000000019917934 0.31420016735540623 0.000600000000019917934 0.27599034777742221
0.000799999999998135536 0.40252292017710189 0.000799999999998135536 0.34554540502552250
0.001007140329448930061 0.48918751920493414 0.001007140329448930061 0.41291889214797939
0.001267914553963578328 0.59267712603093459 0.001267914553963578328 0.49195814668525495
0.001596209851982166583 0.71573966285586010 0.001596209851982166583 0.58363823255312131
0.002009509145210586212 0.86144805306845196 0.002009509145210586212 0.68940883802571062
0.002529822128153114136 1.03321760814792718 0.002529822128153114136 0.81079673264923036
0.003184857364431081805 1.23482404306342231 0.003184857364431081805 0.94941219675914235
0.004009497869020606231 1.47042378425890607 0.004009497869020606231 1.10696361610979710
0.005047658755856332391 1.74457865003760504 0.005047658755856332391 1.28528128799726593
0.006354625877790454069 2.06228704267326313 0.006354625877790454069 1.48634944903095612
0.007999999999995566213 2.42902326707070992 0.007999999999995566213 1.71234408474251354
0.010071403294347192059 2.85078597843879367 0.010071403294347192059 1.96567785551939811
0.012679145539706837553 3.33415797004844672 0.012679145539706837553 2.24906440418066955
0.015962098519764822413 3.88638392494459728 0.015962098519764822413 2.56561775524674385
0.020095091452077440408 4.51547553792859357 0.020095091452077440408 2.91896690533565151
0.025298221281346400247 5.23034141241802342 0.025298221281346400247 3.31328100239809187
0.031848573644282396344 6.04090290191927526 0.031848573644282396344 3.75303066598975921
0.040094978690177640601 6.95811290237661950 0.040094978690177640601 4.24236085965206833
0.050476587558421215363 7.99378134576806154 0.050476587558421215363 4.78414509690280276
0.063546258777947173257 9.16015651077550253 0.063546258777947173257 5.37909263911179014
0.079999999999998294697 10.46933699335957080 0.079999999999998294697 6.02536260488219355
0.100714032943528764008 11.93267233191706644 0.100714032943528764008 6.71876580500224474
0.126791455396883634421 13.56026412478524357 0.126791455396883634421 7.45386717892278394
0.159620985197506115583 15.36086906804515806 0.159620985197506115583 8.22583329157592757
0.200950914520774404082 17.34224321134206903 0.200950914520774404082 9.03068221984093888
0.252982212813464002465 19.51115069576147221 0.252982212813464002465 9.86716473739559241
0.318485736442795541734 21.87455890459106911 0.318485736442795541734 10.73941155167549155
0.400949786901833249431 24.44084314214823195 0.400949786901833249431 11.65082101160924744
0.504765875584169521062 27.21814889349943911 0.504765875584169521062 12.61129584315928831
0.635462587779429100010 30.21887347222810405 0.635462587779429100010 13.63218461234794177
0.800000000000011368684 33.45566451660648255 0.800000000000011368684 14.72933675231942630
1.007140329435344483500 36.94720508764132916 1.007140329435344483500 15.91914680099064761
1.267914553968893187630 40.71232662222693932 1.267914553968893187630 17.21307220512028380
1.596209851975103788391 44.77313461148580842 1.596209851975103788391 18.61977256576516737
2.009509145207672986544 49.14998748219637292 2.009509145207672986544 20.12952267016873265
2.529822128134725289783 53.85738841478853800 2.529822128134725289783 21.71392728503937164
3.184857364427998049905 58.89880031021158402 3.184857364427998049905 23.32431292748959351
4.009497869018190385759 64.26186890010289687 4.009497869018190385759 24.89639321884892453
5.009497869018204596614 69.72479094941773781 5.009497869018204596614 26.31280823095954702
6.009497869018190385759 74.35910326021398475 6.009497869018190385759 27.35312742373019290
7.009497869018190385759 78.37217007418465187 7.009497869018190385759 28.11690895410065494
8.009497869018204596614 81.89782028739460884 8.009497869018204596614 28.66811693275163364
9.009497869018190385759 85.03008821650723803 9.009497869018190385759 29.04948441267730175
10.009497869018190385759 87.83894398154643568 10.009497869018190385759 29.29686278636070540
11.009497869018204596614 90.37585552200481231 11.009497869018204596614 29.47202178504995018
12.009497869018190385759 92.68127925125908462 12.009497869018190385759 29.56369402385364964
13.009497869018190385759 94.78711664616838561 13.009497869018190385759 29.58794462300344108
14.009497869018204596614 96.71918380374086155 14.009497869018204596614 29.55666009740456701
15.009497869018190385759 98.49872453312325149 15.009497869018190385759 29.47130987159591697
16.009497869018190385759 100.14350796487806861 16.009497869018190385759 29.33504432918987703
17.009497869018190385759 101.66672258680645768 17.009497869018190385759 29.12742008099340651
18.009497869018204596614 103.08043033522017140 18.009497869018204596614 28.88717104074177300
19.009497869018190385759 104.39464420994053739 19.009497869018190385759 28.57151376522092434
20.009497869018190385759 105.61756875524285704 20.009497869018190385759 28.26086996793517869
21.009497869018204596614 106.75647385846984605 21.009497869018204596614 27.92922296621521738
22.009497869018190385759 107.81938227603301073 22.009497869018190385759 27.58159782557241613
23.009497869018190385759 108.81455423628219137 23.009497869018190385759 27.20943628194527619
24.009497869018204596614 109.74753868056514250 24.009497869018204596614 26.83615843847247717
25.009497869018190385759 110.62335604747919149 25.009497869018190385759 26.44268747043831524
26.009497869018190385759 111.44655522567441608 26.009497869018190385759 25.99022037416141728
27.009497869018204596614 112.22085397656667283 27.009497869018204596614 25.52769035064581260
28.009497869018190385759 112.94732418527262041 28.009497869018190385759 25.04640831278962665
29.009497869018190385759 113.62779242638701760 29.009497869018190385759 24.55869910723637162
30.009497869018190385759 114.26587144105940297 30.009497869018190385759 24.06995738701141363
31.009497869018190385759 114.86308492285776595 31.009497869018190385759 23.56794875817037394
32.009497869018190385759 115.42463286670934508 32.009497869018190385759 23.06389572065598159
33.009497869018190385759 115.95468711168213360 33.009497869018190385759 22.56828960258259187
34.009497869018190385759 116.45533497913625354 34.009497869018190385759 22.06856342415738226
35.009497869018190385759 116.92790284676085832 35.009497869018190385759 21.54878916570050151
36.009497869018190385759 117.37418230239522643 36.009497869018190385759 21.06515243466439102
37.009497869018190385759 117.79521072798388559 37.009497869018190385759 20.58484696426864602
38.009497869018190385759 118.19194941959631251 38.009497869018190385759 20.10034812825392692
39.009497869018190385759 118.56528112014743215 39.009497869018190385759 19.60602275855943333
40.009497869018190385759 118.91735696607078410 40.009497869018190385759 19.09217214895696202
41.009497869018190385759 119.24954048000698492 41.009497869018190385759 18.61726507890817217
42.009497869018190385759 119.56307883884271348 42.009497869018190385759 18.13015349494377659
43.009497869018190385759 119.85918997627425142 43.009497869018190385759 17.65914525292288673
44.009497869018190385759 120.13895178347989656 44.009497869018190385759 17.18448799583526210
46.009497869018190385759 120.65325873308306370 46.009497869018190385759 16.26888471156327753
48.009497869018190385759 121.11294524890735147 48.009497869018190385759 15.39367595173769310
50.009497869018218807469 121.52391844237327234 50.009497869018218807469 14.54637941954860736
52.009497869018190385759 121.89183481491269845 52.009497869018190385759 13.73134091056510009
54.009497869018190385759 122.22133409220404587 54.009497869018190385759 12.95514818020850711
56.009497869018190385759 122.51670974472594366 56.009497869018190385759 12.21112303830160073
58.009497869018190385759 122.78158260638663535 58.009497869018190385759 11.50245215115242026
60.009497869018190385759 123.01937714686143011 60.009497869018190385759 10.82824355738935296
62.009497869018190385759 123.23284099464692076 62.009497869018190385759 10.18591573318445853
64.009497869018190385759 123.42479317826995100 64.009497869018190385759 9.57533110441459279
66.009497869018218807469 123.59734001477032450 66.009497869018218807469 9.00208666594029516
68.009497869018190385759 123.75256198357941173 68.009497869018190385759 8.46018579154367245
70.009497869018190385759 123.89229005650378213 70.009497869018190385759 7.94042518290628152
72.009497869018190385759 124.01802407474977485 72.009497869018190385759 7.45673239152300305
74.009497869018218807469 124.13131446974455230 74.009497869018218807469 6.99582814481868365
76.009497869018190385759 124.23342628912691055 76.009497869018190385759 6.55997366061929199
78.009497869018190385759 124.32547652971156538 78.009497869018190385759 6.14705266451181931
80.009497869018218807469 124.40850385665865474 80.009497869018218807469 5.75949074360924218
82.009497869018190385759 124.48337649849973729 82.009497869018190385759 5.39131366317081273
84.009497869018190385759 124.55087338098840632 84.009497869018190385759 5.03226604620943707
86.009497869018218807469 124.61178673133254335 86.009497869018218807469 4.70349186926905016
88.009497869018190385759 124.66675848506523039 88.009497869018190385759 4.38304347996671151
91.009497869018190385759 124.73931881625833284 91.009497869018190385759 3.93969329982915362
94.009497869018190385759 124.80160436704227322 94.009497869018190385759 3.52732011278409985
97.009497869018190385759 124.85493893824165923 97.009497869018190385759 3.15472871653183828
99.504748934509137825444 124.89342295120276560 99.504748934509137825444 2.68117130863863196
nan nan nan nan

