Time Pressure difference Time.1 Pressure.1 difference.1
(hr) (psi) (hr) (psi)
0.000200000000006639311 0.53122961465642027 0.000200000000006639311 0.42580862652564394
0.000399999999999067768 0.99337724738660360 0.000399999999999067768 0.90767141693807019
0.000600000000019917934 1.41854868456908267 0.000600000000019917934 1.24603926245072838
0.000799999999998135536 1.81730762186466688 0.000799999999998135536 1.56006594103238849
0.001007140329448930061 2.20858033818558974 0.001007140329448930061 1.86424328230123248
0.001267914553963578328 2.67581448024617208 0.001267914553963578328 2.22108914746064823
0.001596209851982166583 3.23141634768651587 0.001596209851982166583 2.63500574815403299
0.002009509145210586212 3.88925955320253758 0.002009509145210586212 3.11253812670779384
0.002529822128153114136 4.66476352080987233 0.002529822128153114136 3.66057933142818204
0.003184857364431081805 5.57497482164136748 0.003184857364431081805 4.28639944453979638
0.004009497869020606231 6.63865886029316687 0.004009497869020606231 4.99771147391582993
0.005047658755856332391 7.87641130164906844 0.005047658755856332391 5.80277883279238882
0.006354625877790454069 9.31079889680295736 0.006354625877790454069 6.71055993852437549
0.007999999999995566213 10.96653699866835474 0.007999999999995566213 7.73087891513927605
0.010071403294347192059 12.87070829318816223 0.010071403294347192059 8.87462842462308110
0.012679145539706837553 15.05303272868026632 0.012679145539706837553 10.15406000230681194
0.015962098519764822413 17.54621854871436781 0.015962098519764822413 11.58323282398381870
0.020095091452077440408 20.38643689609181564 0.020095091452077440408 13.17853105781717105
0.025298221281346400247 23.61390827026598771 0.025298221281346400247 14.95877754337126753
0.031848573644282396344 27.27342552760003969 0.031848573644282396344 16.94415620207210793
0.040094978690177640601 31.41443872493113076 0.040094978690177640601 19.15338068588478038
0.050476587558421215363 36.09026725929604140 0.050476587558421215363 21.59942431323573331
0.063546258777947173257 41.35620957231779471 0.063546258777947173257 24.28548925232127687
0.079999999999998294697 47.26688831913225641 0.079999999999998294697 27.20326430488232816
0.100714032943528764008 53.87354431510485853 0.100714032943528764008 30.33383614921131866
0.126791455396883634421 61.22178418468130445 0.126791455396883634421 33.65266661253303937
0.159620985197506115583 69.35114259715062701 0.159620985197506115583 37.13793373652327290
0.200950914520774404082 78.29663651037867567 0.200950914520774404082 40.77165996295051542
0.252982212813464002465 88.08880462050889548 0.252982212813464002465 44.54820529368542736
0.318485736442795541734 98.75910322013602638 0.318485736442795541734 48.48621901732781225
0.400949786901833249431 110.34534507372248413 0.400949786901833249431 52.60104397549027766
0.504765875584169521062 122.88430535940871380 0.504765875584169521062 56.93738892503276361
0.635462587779429100010 136.43195538053279847 0.635462587779429100010 61.54649029125135229
0.800000000000011368684 151.04539660456060801 0.800000000000011368684 66.49990498236522285
1.007140329435344483500 166.80897918266472857 1.007140329435344483500 71.87165094175067281
1.267914553968893187630 183.80772315242103332 1.267914553968893187630 77.71345616867917272
1.596209851975103788391 202.14143022818743134 1.596209851975103788391 84.06441696851375411
2.009509145207672986544 221.90201449062624306 2.009509145207672986544 90.88062601975587995
2.529822128134725289783 243.15495479576125604 2.529822128134725289783 98.03388472476355275
3.184857364427998049905 265.91588542420970498 3.184857364427998049905 105.30444238860685857
4.009497869018190385759 290.12902941289058845 4.009497869018190385759 112.40205932533568500
5.009497869018204596614 314.79299109115817146 5.009497869018204596614 118.79687976462801657
6.009497869018190385759 335.71595140558150661 6.009497869018190385759 123.49370546926708414
7.009497869018190385759 353.83411696214733411 7.009497869018190385759 126.94202089928283783
8.009497869018204596614 369.75169751054482958 8.009497869018204596614 129.43061076739346049
9.009497869018190385759 383.89323851594690495 9.009497869018190385759 131.15240595782711353
10.009497869018190385759 396.57464057940785551 10.009497869018190385759 132.26926808280012438
11.009497869018204596614 408.02827078869626121 11.009497869018204596614 133.06007468634976476
12.009497869018190385759 418.43678147166087911 12.009497869018190385759 133.47395585917359995
13.009497869018190385759 427.94420118950580445 13.009497869018190385759 133.58344229202145925
14.009497869018204596614 436.66708427369388801 14.009497869018204596614 133.44219913798627886
15.009497869018190385759 444.70134212291742415 15.009497869018190385759 133.05686054454253053
16.009497869018190385759 452.12719868166846027 16.009497869018190385759 132.44164984125370665
17.009497869018190385759 459.00419724102562213 17.009497869018190385759 131.50426935975130505
18.009497869018204596614 465.38679494540235737 18.009497869018204596614 130.41959469873356170
19.009497869018190385759 471.32019841529364612 19.009497869018190385759 128.99446747256547496
20.009497869018190385759 476.84144946893661654 20.009497869018190385759 127.59197506233456920
21.009497869018204596614 481.98337014208578921 21.009497869018204596614 126.09465753385924813
22.009497869018190385759 486.78218151842128236 22.009497869018190385759 124.52520201722931859
23.009497869018190385759 491.27517681824446072 23.009497869018190385759 122.84496972262867587
24.009497869018204596614 495.48740836255149134 24.009497869018204596614 121.15969756541124980
25.009497869018190385759 499.44154239187355415 25.009497869018190385759 119.38325763280730030
26.009497869018190385759 503.15811619638805041 26.009497869018190385759 117.34046239932047229
27.009497869018204596614 506.65391469893717158 27.009497869018204596614 115.25223513338909243
28.009497869018190385759 509.93377723883440922 28.009497869018190385759 113.07934640626322675
29.009497869018190385759 513.00595042209045005 29.009497869018190385759 110.87744034805533033
30.009497869018190385759 515.88674502679475609 30.009497869018190385759 108.67087269993909615
31.009497869018190385759 518.58304021384901716 31.009497869018190385759 106.40440770700588757
32.009497869018190385759 521.11831288342739299 32.009497869018190385759 104.12871263231072305
33.009497869018190385759 523.51139802493173647 33.009497869018190385759 101.89115364952969855
34.009497869018190385759 525.77171946201747232 34.009497869018190385759 99.63499344752712261
35.009497869018190385759 527.90526551525749710 35.009497869018190385759 97.28832031615078790
36.009497869018190385759 529.92012483270741541 36.009497869018190385759 95.10480063697590936
37.009497869018190385759 531.82098097900416178 37.009497869018190385759 92.93632090968625903
38.009497869018190385759 533.61217400681653089 38.009497869018190385759 90.74890900507543279
39.009497869018190385759 535.29768931758871986 39.009497869018190385759 88.51713233598134423
40.009497869018190385759 536.88723884681655818 40.009497869018190385759 86.19720325239148906
41.009497869018190385759 538.38697861683624524 41.009497869018190385759 84.05309618465643950
42.009497869018190385759 539.80253937299994504 42.009497869018190385759 81.85388826415444896
43.009497869018190385759 541.13941983371148581 43.009497869018190385759 79.72738359751575388
44.009497869018190385759 542.40248645440931341 44.009497869018190385759 77.58440438356393543
46.009497869018190385759 544.72447581859398724 46.009497869018190385759 73.45064517705787921
48.009497869018190385759 546.79986523619118088 48.009497869018190385759 69.49925888269740426
50.009497869018218807469 548.65532409189836471 50.009497869018218807469 65.67389051547684176
52.009497869018190385759 550.31639031821521257 52.009497869018190385759 61.99416044237379708
54.009497869018190385759 551.80401131569044537 54.009497869018190385759 58.48981101478751299
56.009497869018190385759 553.13757121435435238 56.009497869018190385759 55.13069158712497142
58.009497869018190385759 554.33341732942596991 58.009497869018190385759 51.93118929780648330
60.009497869018190385759 555.40701043227977607 60.009497869018190385759 48.88727712596494968
62.009497869018190385759 556.37075549654196038 62.009497869018190385759 45.98730002615231882
64.009497869018190385759 557.23737985218917856 64.009497869018190385759 43.23063687969428770
66.009497869018218807469 558.01639308443645859 66.009497869018218807469 40.64255695924524048
68.009497869018190385759 558.71718812704784796 68.009497869018190385759 38.19598673933622734
70.009497869018190385759 559.34803143853480378 70.009497869018190385759 35.84937523406800608
72.009497869018190385759 559.91569449132600766 72.009497869018190385759 33.66560245403580609
74.009497869018218807469 560.42717716221943647 74.009497869018218807469 31.58471523370802458
76.009497869018190385759 560.88819087931267404 76.009497869018190385759 29.61692250326934328
78.009497869018190385759 561.30377865189291242 78.009497869018190385759 27.75266972202673443
80.009497869018218807469 561.67862983805059685 80.009497869018218807469 26.00290791345474517
82.009497869018190385759 562.01666430979457800 82.009497869018190385759 24.34066464496644855
84.009497869018190385759 562.32139875558675612 84.009497869018190385759 22.71963901335977098
86.009497869018218807469 562.59640991719948033 86.009497869018218807469 21.23529169380050519
88.009497869018190385759 562.84459600061995843 88.009497869018190385759 19.78853358115148353
91.009497869018190385759 563.17219086866930411 91.009497869018190385759 17.78689933591505579
94.009497869018190385759 563.45339723108429553 94.009497869018190385759 15.92511979913768094
97.009497869018190385759 563.69419177442841828 97.009497869018190385759 14.24294680895735254
99.504748934509137825444 563.86793912288578667 99.504748934509137825444 12.10493318633891313
nan nan nan nan

