Time Pressure difference Time.1 Pressure.1 difference.1
(hr) (psi) (hr) (psi)
0.000200000000006639311 0.03202694924534120 0.000200000000006639311 0.02567129334230619
0.000399999999999067768 0.05988906078608620 0.000399999999999067768 0.05472199892418247
0.000600000000019917934 0.08552193904348335 0.000600000000019917934 0.07512163312284864
0.000799999999998135536 0.10956245164583837 0.000799999999998135536 0.09405377888268660
0.001007140329448930061 0.13315163244631342 0.001007140329448930061 0.11239212448998255
0.001267914553963578328 0.16132040116818336 0.001267914553963578328 0.13390576773681495
0.001596209851982166583 0.19481671296668379 0.001596209851982166583 0.15886011063576083
0.002009509145210586212 0.23447698485886859 0.002009509145210586212 0.18764974289457212
0.002529822128153114136 0.28123082825328194 0.002529822128153114136 0.22069023492227574
0.003184857364431081805 0.33610595254980724 0.003184857364431081805 0.25841988787526954
0.004009497869020606231 0.40023369275686199 0.004009497869020606231 0.30130370616006313
0.005047658755856332391 0.47485572722917063 0.005047658755856332391 0.34983987720635634
0.006354625877790454069 0.56133256782822560 0.006354625877790454069 0.40456848908534893
0.007999999999995566213 0.66115426204291516 0.007999999999995566213 0.46608182188257763
0.010071403294347192059 0.77595357993008585 0.010071403294347192059 0.53503657605853439
0.012679145539706837553 0.90752228770549448 0.012679145539706837553 0.61217137628586271
0.015962098519764822413 1.05783231093166563 0.015962098519764822413 0.69833382687189482
0.020095091452077440408 1.22906434760186567 0.020095091452077440408 0.79451170204402355
0.025298221281346400247 1.42364322468182891 0.025298221281346400247 0.90183979946930315
0.031848573644282396344 1.64426942892477301 0.031848573644282396344 1.02153497417472727
0.040094978690177640601 1.89392422194866561 0.040094978690177640601 1.15472544108872865
0.050476587558421215363 2.17582214145166164 0.050476587558421215363 1.30219333998537845
0.063546258777947173257 2.49329703843593498 0.063546258777947173257 1.46413172425527982
0.079999999999998294697 2.84964202186118509 0.079999999999998294697 1.64003952558923616
0.100714032943528764008 3.24794631519636123 0.100714032943528764008 1.82877649130238606
0.126791455396883634421 3.69095946591787705 0.126791455396883634421 2.02886325580146787
0.159620985197506115583 4.18106495343241047 0.159620985197506115583 2.23898420954137656
0.200950914520774404082 4.72037389184458611 0.200950914520774404082 2.45805551545966372
0.252982212813464002465 5.31072740831377299 0.252982212813464002465 2.68573714745678860
0.318485736442795541734 5.95402195036206727 0.318485736442795541734 2.92315344010102107
0.400949786901833249431 6.65253718662022830 0.400949786901833249431 3.17122938777529839
0.504765875584169521062 7.40849023136671114 0.504765875584169521062 3.43266040701377095
0.635462587779429100010 8.22525550131652494 0.635462587779429100010 3.71053545661541584
0.800000000000011368684 9.10627554889880564 0.800000000000011368684 4.00916858347155980
1.007140329435344483500 10.05663570432841070 1.007140329435344483500 4.33302220618680423
1.267914553968893187630 11.08146168415644439 1.267914553968893187630 4.68521491973688242
1.596209851975103788391 12.18677036762335497 1.596209851975103788391 5.06810377529702816
2.009509145207672986544 13.37810310166291927 2.009509145207672986544 5.47904167353705152
2.529822128134725289783 14.65940749751640659 2.529822128134725289783 5.91029973438941436
3.184857364427998049905 16.03162611993924713 3.184857364427998049905 6.34862955422793629
4.009497869018190385759 17.49139626866706365 4.009497869018190385759 6.77653306548550649
5.009497869018204596614 18.97834546552198987 5.009497869018204596614 7.16206614570496569
6.009497869018190385759 20.23975591698131993 6.009497869018190385759 7.44522994965437235
7.009497869018190385759 21.33206996102067521 7.009497869018190385759 7.65312314727000054
8.009497869018204596614 22.29171439775237573 8.009497869018204596614 7.80315608820458628
9.009497869018190385759 23.14428436662327471 9.009497869018190385759 7.90696025433820004
10.009497869018190385759 23.90882498905997622 10.009497869018190385759 7.97429401285557660
11.009497869018204596614 24.59934529001314374 11.009497869018204596614 8.02197042669998694
12.009497869018190385759 25.22685707430721180 12.009497869018190385759 8.04692263371164529
13.009497869018190385759 25.80004358416417887 13.009497869018190385759 8.05352338850981297
14.009497869018204596614 26.32593168622532431 14.009497869018204596614 8.04500807384976468
15.009497869018190385759 26.81030371907496956 15.009497869018190385759 8.02177665144030883
16.009497869018190385759 27.25799625079521604 16.009497869018190385759 7.98468662214635749
17.009497869018190385759 27.67259904729642983 17.009497869018190385759 7.92817351316980279
18.009497869018204596614 28.05739523917235445 18.009497869018204596614 7.86278028327882428
19.009497869018190385759 28.41511025832700810 19.009497869018190385759 7.77686173491220423
20.009497869018190385759 28.74797729432645710 20.009497869018190385759 7.69230780192318431
21.009497869018204596614 29.05797513307463475 21.009497869018204596614 7.60203702038994145
22.009497869018190385759 29.34728748341727211 22.009497869018190385759 7.50741715962326150
23.009497869018190385759 29.61816269153243297 23.009497869018190385759 7.40611875129871411
24.009497869018204596614 29.87211112015382852 24.009497869018204596614 7.30451649804576242
25.009497869018190385759 30.11049927919551550 25.009497869018190385759 7.19741789136190846
26.009497869018190385759 30.33456532769836045 26.009497869018190385759 7.07426116693150941
27.009497869018204596614 30.54532120072228807 27.009497869018204596614 6.94836542088584341
28.009497869018190385759 30.74305865397952786 28.009497869018190385759 6.81736557626226514
29.009497869018190385759 30.92827486162013528 29.009497869018190385759 6.68461632504658532
30.009497869018190385759 31.10195317330610720 30.009497869018190385759 6.55158603433446718
31.009497869018190385759 31.26450832219797249 31.009497869018190385759 6.41494463240140345
32.009497869018190385759 31.41735569153035357 32.009497869018190385759 6.27774676420221933
33.009497869018190385759 31.56163081146377181 33.009497869018190385759 6.14284805750768825
34.009497869018190385759 31.69790182864063510 34.009497869018190385759 6.00682791426769036
35.009497869018190385759 31.82652976894082286 35.009497869018190385759 5.86535089717291758
36.009497869018190385759 31.94800228349218685 36.009497869018190385759 5.73371013014533748
37.009497869018190385759 32.06260173661100055 37.009497869018190385759 5.60297609678318143
38.009497869018190385759 32.17058978284870108 38.009497869018190385759 5.47110067396260735
39.009497869018190385759 32.27220669542474241 39.009497869018190385759 5.33655057333570415
40.009497869018190385759 32.36803799076482591 40.009497869018190385759 5.19668591036698313
41.009497869018190385759 32.45845480520900139 41.009497869018190385759 5.06742126408151528
42.009497869018190385759 32.54379660702227994 42.009497869018190385759 4.93483467909712203
43.009497869018190385759 32.62439490478470816 43.009497869018190385759 4.80663125227486887
44.009497869018190385759 32.70054308899452877 44.009497869018190385759 4.67743460241669862
46.009497869018190385759 32.84053196285100995 46.009497869018190385759 4.42821714042550685
48.009497869018190385759 32.96565373638898677 48.009497869018190385759 4.18999463775108794
50.009497869018218807469 33.07751626242113474 50.009497869018218807469 3.95936954614932501
52.009497869018190385759 33.17765918039043527 52.009497869018190385759 3.73752474488754194
54.009497869018190385759 33.26734537420939120 54.009497869018190385759 3.52625335082598390
56.009497869018190385759 33.34774348081298001 56.009497869018190385759 3.32373763172706260
58.009497869018190385759 33.41983905262594590 58.009497869018190385759 3.13084496421900216
60.009497869018190385759 33.48456419382026894 60.009497869018190385759 2.94733256591662851
62.009497869018190385759 33.54266677960803378 62.009497869018190385759 2.77249777352949778
64.009497869018190385759 33.59491411952909345 64.009497869018190385759 2.60630314084657533
66.009497869018218807469 33.64187953064754311 66.009497869018218807469 2.45027211025593816
68.009497869018190385759 33.68412929730564542 68.009497869018190385759 2.30277246397046742
70.009497869018190385759 33.72216179052765739 70.009497869018190385759 2.16129916221117746
72.009497869018190385759 33.75638525111532573 72.009497869018190385759 2.02964313615419023
74.009497869018218807469 33.78722168998963582 74.009497869018218807469 1.90418990924058851
76.009497869018190385759 33.81501543964401435 76.009497869018190385759 1.78555496087862364
78.009497869018190385759 33.84007053471438553 78.009497869018190385759 1.67316226371327614
80.009497869018218807469 33.86266968879466788 80.009497869018218807469 1.56767203672204225
82.009497869018190385759 33.88304922444370959 82.009497869018190385759 1.46745815683939296
84.009497869018190385759 33.90142115695542913 84.009497869018190385759 1.36972921967830841
86.009497869018218807469 33.91800112213784502 86.009497869018218807469 1.28024039045193083
88.009497869018190385759 33.93296384800591881 88.009497869018190385759 1.19301775194360182
91.009497869018190385759 33.95271399732475714 91.009497869018190385759 1.07234255498308340
94.009497869018190385759 33.96966746085173838 94.009497869018190385759 0.96009896560987318
97.009497869018190385759 33.98418456307169322 97.009497869018190385759 0.85868355597908019
99.504748934509137825444 33.99465950151081017 99.504748934509137825444 0.72978627335726087
nan nan nan nan

