Time Pressure difference Time.1 Pressure.1 difference.1
(hr) (psi) (hr) (psi)
0.000200000000006639311 0.30704096993903190 0.000200000000006639311 0.24610957312950060
0.000399999999999067768 0.57415382188400022 0.000399999999999067768 0.52461742446879289
0.000600000000019917934 0.81989511126469905 0.000600000000019917934 0.72018783059078806
0.000799999999998135536 1.05037046034379822 0.000799999999998135536 0.90168948885358247
0.001007140329448930061 1.27651891106139592 0.001007140329448930061 1.07749841087135456
0.001267914553963578328 1.54657167206888846 0.001267914553963578328 1.28374877330294335
0.001596209851982166583 1.86769935691972933 0.001596209851982166583 1.52298497370370711
0.002009509145210586212 2.24792065919045791 0.002009509145210586212 1.79898992644578914
0.002529822128153114136 2.69614772303689865 0.002529822128153114136 2.11574768697225224
0.003184857364431081805 3.22223315379271691 0.003184857364431081805 2.47746022941290978
0.004009497869020606231 3.83702301099513310 0.004009497869020606231 2.88858553079538760
0.005047658755856332391 4.55242121104487385 0.005047658755856332391 3.35389969234789476
0.006354625877790454069 5.38147092200537980 0.006354625877790454069 3.87858051492693257
0.007999999999995566213 6.33845716436794770 0.007999999999995566213 4.46830616196123298
0.010071403294347192059 7.43903323367756197 0.010071403294347192059 5.12937239221334096
0.012679145539706837553 8.70037671474180563 0.012679145539706837553 5.86886036830577140
0.015962098519764822413 10.14139237219270662 0.015962098519764822413 6.69489603588055626
0.020095091452077440408 11.78298646287875684 0.020095091452077440408 7.61694914350900820
0.025298221281346400247 13.64840569749318533 0.025298221281346400247 8.64589894708614537
0.031848573644282396344 15.76353952512662815 0.031848573644282396344 9.79341138284901724
0.040094978690177640601 18.15696917129046994 0.040094978690177640601 11.07030259826368024
0.050476587558421215363 20.85951226913440593 0.050476587558421215363 12.48407093333808326
0.063546258777947173257 23.90313030326624855 0.063546258777947173257 14.03656718253431457
0.079999999999998294697 27.31939416610396876 0.079999999999998294697 15.72298762575767839
0.100714032943528764008 31.13792010873033433 0.100714032943528764008 17.53240071009461687
0.126791455396883634421 35.38506792325616601 0.126791455396883634421 19.45062382192276829
0.159620985197506115583 40.08368792312376172 0.159620985197506115583 21.46504426973363522
0.200950914520774404082 45.25401926746657466 0.200950914520774404082 23.56527135473286449
0.252982212813464002465 50.91371276231247833 0.252982212813464002465 25.74804526148790629
0.318485736442795541734 57.08094956760155725 0.318485736442795541734 28.02414493662066164
0.400949786901833249431 63.77758476738089399 0.400949786901833249431 30.40243826106318537
0.504765875584169521062 71.02487373984173757 0.504765875584169521062 32.90876607593637004
0.635462587779429100010 78.85516687131712388 0.635462587779429100010 35.57274209494344319
0.800000000000011368684 87.30146776226898453 0.800000000000011368684 38.43572489806430070
1.007140329435344483500 96.41252925236584304 1.007140329435344483500 41.54049549844305034
1.267914553968893187630 106.23749136332591547 1.267914553968893187630 44.91695173052098511
1.596209851975103788391 116.83403765482391634 1.596209851975103788391 48.58769054143454724
2.009509145207672986544 128.25529277898579039 2.009509145207672986544 52.52733430499651490
2.529822128134725289783 140.53910231314642942 2.529822128134725289783 56.66178658403764956
3.184857364427998049905 153.69450258463496084 3.184857364427998049905 60.86403550901130899
4.009497869018190385759 167.68925553222115354 4.009497869018190385759 64.96632786693713513
5.009497869018204596614 181.94457283250426372 5.009497869018204596614 68.66241674469326028
6.009497869018190385759 194.03765998671224224 6.009497869018190385759 71.37709582168648126
7.009497869018190385759 204.50962723500256857 7.009497869018190385759 73.37015886839283496
8.009497869018204596614 213.70969672627819591 8.009497869018204596614 74.80851814996135829
9.009497869018190385759 221.88324794958396069 9.009497869018190385759 75.80368417745970078
10.009497869018190385759 229.21286565598802554 10.009497869018190385759 76.44920999281107754
11.009497869018204596614 235.83285375860427280 11.009497869018204596614 76.90628169944987746
12.009497869018190385759 241.84878195151043201 12.009497869018190385759 77.14549742319206871
13.009497869018190385759 247.34389610035657370 13.009497869018190385759 77.20877857245277198
14.009497869018204596614 252.38556247011663913 14.009497869018204596614 77.12714262103794738
15.009497869018190385759 257.02921608939260523 15.009497869018190385759 76.90442398446035099
16.009497869018190385759 261.32122492610193376 16.009497869018190385759 76.54884348622921664
17.009497869018190385759 265.29600390995057069 17.009497869018190385759 76.00705476756267842
18.009497869018204596614 268.98502827119585845 18.009497869018204596614 75.38013271578178376
19.009497869018190385759 272.41442660700454326 19.009497869018190385759 74.55643532818002939
20.009497869018190385759 275.60560840865144883 20.009497869018190385759 73.74582044887226573
21.009497869018204596614 278.57754421056336014 21.009497869018204596614 72.88039839112965979
22.009497869018190385759 281.35116913450036691 22.009497869018190385759 71.97328189986647828
23.009497869018190385759 283.94803797751745833 23.009497869018190385759 71.00213846353767622
24.009497869018204596614 286.38263052147470944 24.009497869018204596614 70.02808207909090754
25.009497869018190385759 288.66804743750486750 25.009497869018190385759 69.00133239327394108
26.009497869018190385759 290.81615890249946688 26.009497869018190385759 67.82063423079991082
27.009497869018204596614 292.83666629388108049 27.009497869018204596614 66.61367718718818765
28.009497869018190385759 294.73236666097767511 28.009497869018190385759 65.35778737242736725
29.009497869018190385759 296.50802639074959188 29.009497869018190385759 64.08512607272922423
30.009497869018190385759 298.17307281365202698 30.009497869018190385759 62.80977045959782146
31.009497869018190385759 299.73148195846312092 31.009497869018190385759 61.49979528019606789
32.009497869018190385759 301.19682304271492512 32.009497869018190385759 60.18448528289518862
33.009497869018190385759 302.57998234468533383 33.009497869018190385759 58.89121724697588434
34.009497869018190385759 303.88640666153304437 34.009497869018190385759 57.58719804765328831
35.009497869018190385759 305.11955713267178680 35.009497869018190385759 56.23086403594036398
36.009497869018190385759 306.28410884826206484 36.009497869018190385759 54.96882972595855676
37.009497869018190385759 307.38276882272720059 37.009497869018190385759 53.71548823220398106
38.009497869018190385759 308.41804552687563046 38.009497869018190385759 52.45120428733717688
39.009497869018190385759 309.39224244961548038 39.009497869018190385759 51.16127832263142494
40.009497869018190385759 310.31097291146278394 40.009497869018190385759 49.82040187982259738
41.009497869018190385759 311.17779498037322128 41.009497869018190385759 48.58114733608582725
42.009497869018190385759 311.99596312384403518 42.009497869018190385759 47.31004551047458051
43.009497869018190385759 312.76865550021858553 43.009497869018190385759 46.08096483159167178
44.009497869018190385759 313.49868483144751963 44.009497869018190385759 44.84236216664704244
46.009497869018190385759 314.84075207863685364 46.009497869018190385759 42.45312519407932683
48.009497869018190385759 316.04028908146830190 48.009497869018190385759 40.16929641843977805
50.009497869018218807469 317.11271025495040021 50.009497869018218807469 37.95830369243157065
52.009497869018190385759 318.07277605548222255 52.009497869018190385759 35.83148722816100218
54.009497869018190385759 318.93259369622478516 54.009497869018190385759 33.80603755900562390
56.009497869018190385759 319.70336684866356336 56.009497869018190385759 31.86452816503553720
58.009497869018190385759 320.39454396104440548 58.009497869018190385759 30.01527454827347441
60.009497869018190385759 321.01506107553780112 60.009497869018190385759 28.25594916454854655
62.009497869018190385759 321.57208803928568841 62.009497869018190385759 26.57981561144583793
64.009497869018190385759 322.07298101548548175 64.009497869018190385759 24.98651489376825552
66.009497869018218807469 322.52323636990365685 66.009497869018218807469 23.49065218745366934
68.009497869018190385759 322.92828304590841526 68.009497869018190385759 22.07657949154295807
70.009497869018190385759 323.29289890484125181 70.009497869018190385759 20.72028109858976208
72.009497869018190385759 323.62099773351872045 72.009497869018190385759 19.45810050095647625
74.009497869018218807469 323.91662533229197152 74.009497869018218807469 18.25538586902390392
76.009497869018190385759 324.18308280180457359 76.009497869018190385759 17.11803777711897823
78.009497869018190385759 324.42328490889224213 78.009497869018190385759 16.04053387603380187
80.009497869018218807469 324.63994201648796434 80.009497869018218807469 15.02920365640044942
82.009497869018190385759 324.83531973868861087 82.009497869018190385759 14.06845754709070029
84.009497869018190385759 325.01145065689877356 84.009497869018190385759 13.13153447561160903
86.009497869018218807469 325.17040206223458654 86.009497869018218807469 12.27360896063698981
88.009497869018190385759 325.31384906457850548 88.009497869018190385759 11.43740931754627077
91.009497869018190385759 325.50319288739603962 91.009497869018190385759 10.28050145103347113
94.009497869018190385759 325.66572500512211263 94.009497869018190385759 9.20442703986856792
97.009497869018190385759 325.80489983292648049 97.009497869018190385759 8.23216191710378986
99.504748934509137825444 325.90532261231015809 99.504748934509137825444 6.99642927283808813
nan nan nan nan

