Time Pressure difference Time.1 Pressure.1 difference.1
(hr) (psi) (hr) (psi)
0.000200000000006639311 0.10652441814211311 0.000200000000006639311 0.08538495394288796
0.000399999999999067768 0.19919622391893885 0.000399999999999067768 0.18201012685651996
0.000600000000019917934 0.28445340594897722 0.000600000000019917934 0.24986108408251831
0.000799999999998135536 0.36441424134376682 0.000799999999998135536 0.31283104715328369
0.001007140329448930061 0.44287390791925985 0.001007140329448930061 0.37382597928189848
0.001267914553963578328 0.53656568214634903 0.001267914553963578328 0.44538222747244977
0.001596209851982166583 0.64797732791092655 0.001596209851982166583 0.52838254189720446
0.002009509145210586212 0.77989084094362815 0.002009509145210586212 0.62413936223629418
0.002529822128153114136 0.93539818962504651 0.002529822128153114136 0.73403491180669966
0.003184857364431081805 1.11791762478522827 0.003184857364431081805 0.85952701836774414
0.004009497869020606231 1.33121206503912770 0.004009497869020606231 1.00216232701064456
0.005047658755856332391 1.57941144056658911 0.005047658755856332391 1.16359785244722880
0.006354625877790454069 1.86704093212431532 0.006354625877790454069 1.34562997456648681
0.007999999999995566213 2.19905656722969622 0.007999999999995566213 1.55022866843552998
0.010071403294347192059 2.58088908107180703 0.010071403294347192059 1.77957817689034270
0.012679145539706837553 3.01849804389001442 0.012679145539706837553 2.03613522982036965
0.015962098519764822413 3.51844225157706170 0.015962098519764822413 2.32271903285651993
0.020095091452077440408 4.08797489528446700 0.020095091452077440408 2.64261500897251267
0.025298221281346400247 4.73516116035477896 0.025298221281346400247 2.99959759388702984
0.031848573644282396344 5.46898310055413628 0.031848573644282396344 3.39771415323333237
0.040094978690177640601 6.29935665126404043 0.040094978690177640601 3.84071722796903270
0.050476587558421215363 7.23697364439357038 0.050476587558421215363 4.33120828299484550
0.063546258777947173257 8.29292275827604541 0.063546258777947173257 4.86982943067517038
0.079999999999998294697 9.47815715966872396 0.079999999999998294697 5.45491407424245889
0.100714032943528764008 10.80295187445746308 0.100714032943528764008 6.08266963411445793
0.126791455396883634421 12.27645213663989487 0.126791455396883634421 6.74817561168749069
0.159620985197506115583 13.90658560598171256 0.159620985197506115583 7.44705617521370922
0.200950914520774404082 15.70037403157003730 0.200950914520774404082 8.17570638837670849
0.252982212813464002465 17.66394116243494139 0.252982212813464002465 8.93299529480192867
0.318485736442795541734 19.80359474794339647 0.318485736442795541734 9.72266252903165729
0.400949786901833249431 22.12691716419336885 0.400949786901833249431 10.54778470281784131
0.504765875584169521062 24.64128272606754066 0.504765875584169521062 11.41732700593710881
0.635462587779429100010 27.35791503698757410 0.635462587779429100010 12.34156358395997088
0.800000000000011368684 30.28826432568515514 0.800000000000011368684 13.33484333198149230
1.007140329435344483500 33.44924484265753506 1.007140329435344483500 14.41200864231697665
1.267914553968893187630 36.85790516686817142 1.267914553968893187630 15.58343223303789138
1.596209851975103788391 40.53425796187768526 1.596209851975103788391 16.85695386131402884
2.009509145207672986544 44.49673422944405132 2.009509145207672986544 18.22376904459062885
2.529822128134725289783 48.75846406782630993 2.529822128134725289783 19.65817085568653155
3.184857364427998049905 53.32258252936315301 3.184857364427998049905 21.11609395210596318
4.009497869018190385759 58.17790498056653092 4.009497869018190385759 22.53933823954961824
5.009497869018204596614 63.12362730923617704 5.009497869018204596614 23.82165478897521282
6.009497869018190385759 67.31918815865526540 6.009497869018190385759 24.76348222385041353
7.009497869018190385759 70.95231965296008525 7.009497869018190385759 25.45495307678934793
8.009497869018204596614 74.14418049687202483 8.009497869018204596614 25.95397568468047211
9.009497869018190385759 76.97990234985566360 9.009497869018190385759 26.29923736769010034
10.009497869018190385759 79.52283094187340851 10.009497869018190385759 26.52319530362833078
11.009497869018204596614 81.81956150808720452 11.009497869018204596614 26.68177120184995488
12.009497869018190385759 83.90672026889136248 12.009497869018190385759 26.76476441212786028
13.009497869018190385759 85.81318844298084514 13.009497869018190385759 26.78671909656524619
14.009497869018204596614 87.56233799983640154 14.009497869018204596614 26.75839641954377868
15.009497869018190385759 89.17340150040152480 15.009497869018190385759 26.68112668848624480
16.009497869018190385759 90.66246579068842948 16.009497869018190385759 26.55776202583462364
17.009497869018190385759 92.04147074426856534 17.009497869018190385759 26.36979451119521656
18.009497869018204596614 93.32133633898631331 18.009497869018204596614 26.15229094221000850
19.009497869018190385759 94.51112759834852284 19.009497869018190385759 25.86651837916450347
20.009497869018190385759 95.61827230504233910 20.009497869018190385759 25.58528464552711412
21.009497869018204596614 96.64935207305259723 21.009497869018204596614 25.28503617651437096
22.009497869018190385759 97.61163010788787631 22.009497869018190385759 24.97032229179041352
23.009497869018190385759 98.51258460444483944 23.009497869018190385759 24.63339497714572346
24.009497869018204596614 99.35723916051163940 24.009497869018204596614 24.29545704784786508
25.009497869018190385759 100.15013890688943832 25.009497869018190385759 23.93923776909504397
26.009497869018190385759 100.89540206821411061 26.009497869018190385759 23.52960779435915128
27.009497869018204596614 101.59639442848936142 27.009497869018204596614 23.11086759555508863
28.009497869018190385759 102.25408639258408527 28.009497869018190385759 22.67515072104622931
29.009497869018190385759 102.87013160495392583 29.009497869018190385759 22.23361516808973093
30.009497869018190385759 103.44780077208335456 30.009497869018190385759 21.79114485332986106
31.009497869018190385759 103.98847333252803082 31.009497869018190385759 21.33666366863945285
32.009497869018190385759 104.49685697400313700 32.009497869018190385759 20.88033162875955639
33.009497869018190385759 104.97672856856428325 33.009497869018190385759 20.43164679997122590
34.009497869018190385759 105.42997782134820284 34.009497869018190385759 19.97923197571644849
35.009497869018190385759 105.85780553582492303 35.009497869018190385759 19.50866711450992241
36.009497869018190385759 106.26183368205010993 36.009497869018190385759 19.07081847635296867
37.009497869018190385759 106.64300142829310403 37.009497869018190385759 18.63598571321362485
38.009497869018190385759 107.00217906034460214 38.009497869018190385759 18.19735658948432544
39.009497869018190385759 107.34016574782577891 39.009497869018190385759 17.74983125479049306
40.009497869018190385759 107.65890896928301856 40.009497869018190385759 17.28462922361192611
41.009497869018190385759 107.95964315645602483 41.009497869018190385759 16.85468376966242943
42.009497869018190385759 108.24349741031322480 42.009497869018190385759 16.41368925873608120
43.009497869018190385759 108.51157435721869149 43.009497869018190385759 15.98727351300119182
44.009497869018190385759 108.76484983948179774 44.009497869018190385759 15.55755422108162556
46.009497869018190385759 109.23046500687402727 46.009497869018190385759 14.72863527141527484
48.009497869018190385759 109.64663090581552751 48.009497869018190385759 13.93628651251992423
50.009497869018218807469 110.01869539457463532 50.009497869018218807469 13.16920740349666907
52.009497869018190385759 110.35177944782036263 52.009497869018190385759 12.43133230364769481
54.009497869018190385759 110.65008352726167118 54.009497869018190385759 11.72862527557338019
56.009497869018190385759 110.91749462096491641 56.009497869018190385759 11.05504038378783882
58.009497869018190385759 111.15729076199500014 58.009497869018190385759 10.41346259838059396
60.009497869018190385759 111.37257220988047379 60.009497869018190385759 9.80308440402704839
62.009497869018190385759 111.56582646260933700 62.009497869018190385759 9.22156868152202414
64.009497869018190385759 111.73960565843373161 64.009497869018190385759 8.66879088151143584
66.009497869018218807469 111.89581669976247724 66.009497869018218807469 8.14981810585127242
68.009497869018190385759 112.03634309756006360 68.009497869018190385759 7.65922145624959860
70.009497869018190385759 112.16284247718981248 70.009497869018190385759 7.18866895257195893
72.009497869018190385759 112.27667268305751236 72.009497869018190385759 6.75076956155632857
74.009497869018218807469 112.37923736018292686 74.009497869018218807469 6.33350121986543524
76.009497869018190385759 112.47168178838117569 76.009497869018190385759 5.93891106553107484
78.009497869018190385759 112.55501721328916176 78.009497869018190385759 5.56508318148111503
80.009497869018218807469 112.63018396490399198 80.009497869018218807469 5.21421351344505357
82.009497869018190385759 112.69796807260625826 82.009497869018190385759 4.88089343470493642
84.009497869018190385759 112.75907471769957624 84.009497869018190385759 4.55583849153872134
86.009497869018218807469 112.81422112363240728 86.009497869018218807469 4.25819086389446522
88.009497869018190385759 112.86398845097622257 88.009497869018190385759 3.96808078363850214
91.009497869018190385759 112.92967916501494585 91.009497869018190385759 3.56670458505242927
94.009497869018190385759 112.98606785891992388 94.009497869018190385759 3.19337264648501318
97.009497869018190385759 113.03435300326020752 97.009497869018190385759 2.85605617532172307
99.504748934509137825444 113.06919355937290561 99.504748934509137825444 2.42733260486219393
nan nan nan nan

