Time Pressure difference Time.1 Pressure.1 difference.1
(hr) (psi) (hr) (psi)
0.000200000000006639311 0.68370574258532724 0.000200000000006639311 0.54802630569879729
0.000399999999999067768 1.27850125417253579 0.000399999999999067768 1.16819571616406948
0.000600000000019917934 1.82570748131957927 0.000600000000019917934 1.60368355927472517
0.000799999999998135536 2.33892016339594111 0.000799999999998135536 2.00784371440865739
0.001007140329448930061 2.84249789265825603 0.001007140329448930061 2.39932752715571462
0.001267914553963578328 3.44383986841643663 0.001267914553963578328 2.85859704168591966
0.001596209851982166583 4.15891330724529329 0.001596209851982166583 3.39131801400689392
0.002009509145210586212 5.00557389416106346 0.002009509145210586212 4.00591407657543019
0.002529822128153114136 6.00366681184180173 0.002529822128153114136 4.71125675421032142
0.003184857364431081805 7.17513142182414487 0.003184857364431081805 5.51670282377205812
0.004009497869020606231 8.54411926711387792 0.004009497869020606231 6.43217911846047752
0.005047658755856332391 10.13713748128359882 0.005047658755856332391 7.46832085688352088
0.006354625877790454069 11.98323003494168404 0.006354625877790454069 8.63665774525679808
0.007999999999995566213 14.11420620274223303 0.007999999999995566213 9.94983367584111278
0.010071403294347192059 16.56492207589878873 0.010071403294347192059 11.42186777585827784
0.012679145539706837553 19.37362796797381748 0.012679145539706837553 13.06852807636341751
0.015962098519764822413 22.58242020293251429 0.015962098519764822413 14.90790908670001613
0.020095091452077440408 26.23785194228331008 0.020095091452077440408 16.96109763928763314
0.025298221281346400247 30.39168797038164982 0.025298221281346400247 19.25231919736642539
0.031848573644282396344 35.10157780878537181 0.031848573644282396344 21.80755097042570156
0.040094978690177640601 40.43116491203456064 0.040094978690177640601 24.65087789454633693
0.050476587558421215363 46.44907267185938338 0.050476587558421215363 27.79899695360090561
0.063546258777947173257 53.22647155965409382 0.063546258777947173257 31.25602941779749600
0.079999999999998294697 60.83366229277573467 0.079999999999998294697 35.01127856801369376
0.100714032943528764008 69.33659307658319904 0.100714032943528764008 39.04040248823788772
0.126791455396883634421 78.79396077242077467 0.126791455396883634421 43.31181993906611893
0.159620985197506115583 89.25664748414406802 0.159620985197506115583 47.79744551673113051
0.200950914520774404082 100.76972090850834718 0.200950914520774404082 52.47414165611716896
0.252982212813464002465 113.37248510791576450 0.252982212813464002465 57.33464953918622342
0.318485736442795541734 127.10542511425107648 0.318485736442795541734 62.40297126476527723
0.400949786901833249431 142.01720689697967259 0.400949786901833249431 67.69885345207266880
0.504765875584169521062 158.15516102613281646 0.504765875584169521062 73.27983738451138152
0.635462587779429100010 175.59132396288754308 0.635462587779429100010 79.21186561731170173
0.800000000000011368684 194.39918671779622628 0.800000000000011368684 85.58703367324069688
1.007140329435344483500 214.68731003588041517 1.007140329435344483500 92.50060448859653661
1.267914553968893187630 236.56511682264408591 1.267914553968893187630 100.01915328655692861
1.596209851975103788391 260.16105436969860421 1.596209851975103788391 108.19299798568873427
2.009509145207672986544 285.59341838767363697 2.009509145207672986544 116.96562876985619539
2.529822128134725289783 312.94648179480674344 2.529822128134725289783 126.17205085153055677
3.184857364427998049905 342.24036629957265632 3.184857364427998049905 135.52943961417028618
4.009497869018190385759 373.40328556154469197 4.009497869018190385759 144.66424935449495592
5.009497869018204596614 405.14641841614337636 5.009497869018204596614 152.89454250178860661
6.009497869018190385759 432.07478935816646981 6.009497869018190385759 158.93947414262160578
7.009497869018190385759 455.39331960265877797 7.009497869018190385759 163.37754196998130851
8.009497869018204596614 475.87964214332242818 8.009497869018204596614 166.58041910036749300
9.009497869018190385759 494.08015756574030775 9.009497869018190385759 168.79641238608940057
10.009497869018190385759 510.40143780993247447 10.009497869018190385759 170.23384175269947605
11.009497869018204596614 525.14254510419368671 11.009497869018204596614 171.25162954389972469
12.009497869018190385759 538.53855754281914869 12.009497869018190385759 171.78430491967031912
13.009497869018190385759 550.77484347063523273 13.009497869018190385759 171.92521668514424960
14.009497869018204596614 562.00141121463616400 14.009497869018204596614 171.74343322870581119
15.009497869018190385759 572.34170113329616925 15.009497869018190385759 171.24749286335620013
16.009497869018190385759 581.89896344088913338 16.009497869018190385759 170.45570136842874831
17.009497869018190385759 590.74983183576296142 17.009497869018190385759 169.24926934636405917
18.009497869018204596614 598.96439401885334064 18.009497869018204596614 167.85326604738710898
19.009497869018190385759 606.60083203645922367 19.009497869018190385759 166.01909181921269010
20.009497869018190385759 613.70681963105607792 20.009497869018190385759 164.21404916279493591
21.009497869018204596614 620.32459957998457867 21.009497869018204596614 162.28696421788961857
22.009497869018190385759 626.50078931990788078 22.009497869018190385759 160.26703588587048444
23.009497869018190385759 632.28338615401844436 23.009497869018190385759 158.10453508207254458
24.009497869018204596614 637.70463304328382037 24.009497869018204596614 155.93554784958564596
25.009497869018190385759 642.79370200369567101 25.009497869018190385759 153.64922541994334892
26.009497869018190385759 647.57702503912582870 26.009497869018190385759 151.02009708536397170
27.009497869018204596614 652.07620476324541414 27.009497869018204596614 148.33249659369343476
28.009497869018190385759 656.29746952625862377 28.009497869018190385759 145.53593469325096521
29.009497869018190385759 660.25143291545589364 29.009497869018190385759 142.70202676512494122
30.009497869018190385759 663.95908730840426415 30.009497869018190385759 139.86211925470536244
31.009497869018190385759 667.42928635648706859 31.009497869018190385759 136.94512236996038723
32.009497869018190385759 670.69224541484368274 32.009497869018190385759 134.01624614014303916
33.009497869018190385759 673.77220558385704408 33.009497869018190385759 131.13645201027281928
34.009497869018190385759 676.68129555924144825 34.009497869018190385759 128.23271764806244732
35.009497869018190385759 679.42722245869322251 35.009497869018190385759 125.21249089182184377
36.009497869018190385759 682.02039657368106873 36.009497869018190385759 122.40224669136350144
37.009497869018190385759 684.46684576852169357 37.009497869018190385759 119.61135928350182667
38.009497869018190385759 686.77215579907453957 38.009497869018190385759 116.79610569198436565
39.009497869018190385759 688.94145597624128641 39.009497869018190385759 113.92375354381871944
40.009497869018190385759 690.98724580284920194 40.009497869018190385759 110.93794704305169319
41.009497869018190385759 692.91744823294004618 41.009497869018190385759 108.17842785495756175
42.009497869018190385759 694.73931017599738880 42.009497869018190385759 105.34799249724724746
43.009497869018190385759 696.45990861953441708 43.009497869018190385759 102.61112803769394475
44.009497869018190385759 698.08550681288318174 44.009497869018190385759 99.85306042550429595
46.009497869018190385759 701.07396494608030935 46.009497869018190385759 94.53280938908365272
48.009497869018190385759 703.74504280726046090 48.009497869018190385759 89.44727683199062085
50.009497869018218807469 706.13306455864244526 50.009497869018218807469 84.52393248518777114
52.009497869018190385759 708.27089815529143380 52.009497869018190385759 79.78802824955579354
54.009497869018190385759 710.18550342333969638 54.009497869018190385759 75.27784327198078529
56.009497869018190385759 711.90182822083363590 56.009497869018190385759 70.95457292078206990
58.009497869018190385759 713.44091194953648483 58.009497869018190385759 66.83673380137086895
60.009497869018190385759 714.82265300720666801 60.009497869018190385759 62.91914303761150506
62.009497869018190385759 716.06301690380621494 62.009497869018190385759 59.18680029578188595
64.009497869018190385759 717.17838402994732405 64.009497869018190385759 55.63890618068123928
66.009497869018218807469 718.18099345860628091 66.009497869018218807469 52.30798287546372904
68.009497869018190385759 719.08293412943771727 68.009497869018190385759 49.15918607867389056
70.009497869018190385759 719.89484518039478189 70.009497869018190385759 46.13903863676904393
72.009497869018190385759 720.62544166511418098 72.009497869018190385759 43.32846868920466932
74.009497869018218807469 721.28373259934403450 74.009497869018218807469 40.65031501900561040
76.009497869018190385759 721.87706873326999357 76.009497869018190385759 38.11771677353931409
78.009497869018190385759 722.41194054542461345 78.009497869018190385759 35.71837702100950906
80.009497869018218807469 722.89438335644263134 80.009497869018218807469 33.46639000132707764
82.009497869018190385759 723.32944213921132359 82.009497869018190385759 31.32704152209312198
84.009497869018190385759 723.72164295935272094 84.009497869018190385759 29.24074116791519629
86.009497869018218807469 724.07558917259495956 86.009497869018218807469 27.33034920486513286
88.009497869018190385759 724.39501084221330984 88.009497869018190385759 25.46833548714385032
91.009497869018190385759 724.81663359506330835 91.009497869018190385759 22.89218236942147300
94.009497869018190385759 725.17855318600879855 94.009497869018190385759 20.49602574410642220
97.009497869018190385759 725.48846175948710879 97.009497869018190385759 18.33102721677079927
99.504748934509137825444 725.71207892355687363 99.504748934509137825444 15.57935044427891569
nan nan nan nan

