Time Pressure difference Time.1 Pressure.1 difference.1
(hr) (psi) (hr) (psi)
0.000200000000006639311 0.11279056038576682 0.000200000000006639311 0.09040759829246962
0.000399999999999067768 0.21091364885534702 0.000399999999999067768 0.19271660490690351
0.000600000000019917934 0.30118595924009350 0.000600000000019917934 0.26455879491090173
0.000799999999998135536 0.38585037318751775 0.000799999999998135536 0.33123287345641805
0.001007140329448930061 0.46892531426745160 0.001007140329448930061 0.39581574276906900
0.001267914553963578328 0.56812836933142841 0.001267914553963578328 0.47158118202965271
0.001596209851982166583 0.68609364131745165 0.001596209851982166583 0.55946386789115765
0.002009509145210586212 0.82576677276384147 0.002009509145210586212 0.66085344236784094
0.002529822128153114136 0.99042161254416694 0.002529822128153114136 0.77721343603062321
0.003184857364431081805 1.18367748506671222 0.003184857364431081805 0.91008743121290570
0.004009497869020606231 1.40951865710025293 0.004009497869020606231 1.06111305212891804
0.005047658755856332391 1.67231799589403551 0.005047658755856332391 1.23204478494412450
0.006354625877790454069 1.97686686930809863 0.006354625877790454069 1.42478467895275074
0.007999999999995566213 2.32841283589026649 0.007999999999995566213 1.64141859010820812
0.010071403294347192059 2.73270608584073660 0.010071403294347192059 1.88425924611918627
0.012679145539706837553 3.19605675235413278 0.012679145539706837553 2.15590789039803843
0.015962098519764822413 3.72540944284630049 0.015962098519764822413 2.45934956420102102
0.020095091452077440408 4.32844400677178776 0.020095091452077440408 2.79806295067677846
0.025298221281346400247 5.01370005214035341 0.025298221281346400247 3.17604451117450237
0.031848573644282396344 5.79068798882202618 0.031848573644282396344 3.59757969165882274
0.040094978690177640601 6.66990704251486566 0.040094978690177640601 4.06664177079074030
0.050476587558421215363 7.66267797641672210 0.050476587558421215363 4.58598524081807213
0.063546258777947173257 8.78074174405698926 0.063546258777947173257 5.15628998542076911
0.079999999999998294697 10.03569581611982464 0.079999999999998294697 5.77579137272730936
0.100714032943528764008 11.43841963177849053 0.100714032943528764008 6.44047373023883818
0.126791455396883634421 12.99859637997165329 0.126791455396883634421 7.14512711825734304
0.159620985197506115583 14.72462005339240143 0.159620985197506115583 7.88511830316745677
0.200950914520774404082 16.62392544519180504 0.200950914520774404082 8.65663029357533809
0.252982212813464002465 18.70299652493111608 0.252982212813464002465 9.45846560626086408
0.318485736442795541734 20.96851208605771077 0.318485736442795541734 10.29458385426881328
0.400949786901833249431 23.42850052679298045 0.400949786901833249431 11.16824262651300614
0.504765875584169521062 26.09076994524798465 0.504765875584169521062 12.08893447687458433
0.635462587779429100010 28.96720415681037153 0.635462587779429100010 13.06753791242820384
0.800000000000011368684 32.06992693307839914 0.800000000000011368684 14.11924588092158039
1.007140329435344483500 35.41684748046092324 1.007140329435344483500 15.25977385657091645
1.267914553968893187630 39.02601723550748147 1.267914553968893187630 16.50010471733423856
1.596209851975103788391 42.91862607728225498 1.596209851975103788391 17.84853938256779315
2.009509145207672986544 47.11418918411723666 2.009509145207672986544 19.29575545897831290
2.529822128134725289783 51.62660901299256011 2.529822128134725289783 20.81453384719750233
3.184857364427998049905 56.45920503109039146 3.184857364427998049905 22.35821712575925702
4.009497869018190385759 61.60013468530573988 4.009497869018190385759 23.86518166540547981
5.009497869018204596614 66.83678185683831430 5.009497869018204596614 25.22292860009140014
6.009497869018190385759 71.27914040328205658 6.009497869018190385759 26.22015764878278787
7.009497869018190385759 75.12598551489891463 7.009497869018190385759 26.95230325777695768
8.009497869018204596614 78.50560287904097834 8.009497869018204596614 27.48068013672050114
9.009497869018190385759 81.50813189984717155 9.009497869018190385759 27.84625133049540224
10.009497869018190385759 84.20064452668948718 10.009497869018190385759 28.08338326266529350
11.009497869018204596614 86.63247689091585357 11.009497869018204596614 28.25128715489995557
12.009497869018190385759 88.84240969647322572 12.009497869018190385759 28.33916231872361990
13.009497869018190385759 90.86102305727385442 13.009497869018190385759 28.36240845518673126
14.009497869018204596614 92.71306376453264875 14.009497869018204596614 28.33241973834047300
15.009497869018190385759 94.41889570630749517 15.009497869018190385759 28.25060472898543651
16.009497869018190385759 95.99555201367010682 16.009497869018190385759 28.11998332147195612
17.009497869018190385759 97.45567490569612801 17.009497869018190385759 27.92095889420669863
18.009497869018204596614 98.81082671186786115 18.009497869018204596614 27.69066099763412581
19.009497869018190385759 100.07060569236902836 19.009497869018190385759 27.38807828382124043
20.009497869018190385759 101.24287655828013044 20.009497869018190385759 27.09030138938165067
21.009497869018204596614 102.33460807734979880 21.009497869018204596614 26.77239124572109930
22.009497869018190385759 103.35349070246951442 22.009497869018190385759 26.43916477954278932
23.009497869018190385759 104.30744252235335523 23.009497869018190385759 26.08241821109546876
24.009497869018204596614 105.20178264054173667 24.009497869018204596614 25.72460158007421072
25.009497869018190385759 106.04132354847116915 25.009497869018190385759 25.34742822610063229
26.009497869018190385759 106.83042571928552888 26.009497869018190385759 24.91370237049792635
27.009497869018204596614 107.57265292428284909 27.009497869018204596614 24.47033039529362242
28.009497869018190385759 108.26903265097138274 28.009497869018190385759 24.00898311640188965
29.009497869018190385759 108.92131581701002574 29.009497869018190385759 23.54147488385971343
30.009497869018190385759 109.53296552338238712 30.009497869018190385759 23.07297690352573127
31.009497869018190385759 110.10544235208850239 31.009497869018190385759 22.59176153150059463
32.009497869018190385759 110.64373091365038704 32.009497869018190385759 22.10858643045129668
33.009497869018190385759 111.15183024906806963 33.009497869018190385759 21.63350837644011904
34.009497869018190385759 111.63174122260397780 34.009497869018190385759 21.15448091546447529
35.009497869018190385759 112.08473527322638574 35.009497869018190385759 20.65623576830462582
36.009497869018190385759 112.51252978099422819 36.009497869018190385759 20.19263132790314330
37.009497869018190385759 112.91611915936917399 37.009497869018190385759 19.73222016693207337
38.009497869018190385759 113.29642488742369721 38.009497869018190385759 19.26778933004222694
39.009497869018190385759 113.65429314475670708 39.009497869018190385759 18.79393897566052374
40.009497869018190385759 113.99178596747613312 40.009497869018190385759 18.30137211911850770
41.009497869018190385759 114.31021040095343722 41.009497869018190385759 17.84613575611316350
42.009497869018190385759 114.61076196386106574 42.009497869018190385759 17.37920039160290742
43.009497869018190385759 114.89460814293744306 43.009497869018190385759 16.92770136670714365
44.009497869018190385759 115.16278218298073455 44.009497869018190385759 16.47270446938054533
46.009497869018190385759 115.65578647786661293 46.009497869018190385759 15.59502558149852369
48.009497869018190385759 116.09643272380468204 48.009497869018190385759 14.75606807207991977
50.009497869018218807469 116.49038335896136687 50.009497869018218807469 13.94386666252588469
52.009497869018190385759 116.84306059180980242 52.009497869018190385759 13.16258714503873506
54.009497869018190385759 117.15891197004177116 54.009497869018190385759 12.41854440943063764
56.009497869018190385759 117.44205312808050223 56.009497869018190385759 11.70533687695182934
58.009497869018190385759 117.69595492446529761 58.009497869018190385759 11.02601922181474592
60.009497869018190385759 117.92389998693226971 60.009497869018190385759 10.37973642779334504
62.009497869018190385759 118.12852213688047698 62.009497869018190385759 9.76401389808214404
64.009497869018190385759 118.31252363834160235 64.009497869018190385759 9.17871975689446273
66.009497869018218807469 118.47792356445440021 66.009497869018218807469 8.62921917090134905
68.009497869018190385759 118.62671622094593715 68.009497869018190385759 8.10976389485251481
70.009497869018190385759 118.76065674055392662 70.009497869018190385759 7.61153183213501450
72.009497869018190385759 118.88118284088442067 72.009497869018190385759 7.14787365341258241
74.009497869018218807469 118.98978073431133851 74.009497869018218807469 6.70606011515163747
76.009497869018190385759 119.08766307005065244 76.009497869018190385759 6.28825877526819621
78.009497869018190385759 119.17590057877676202 78.009497869018190385759 5.89244101568588619
80.009497869018218807469 119.25548890401599067 80.009497869018218807469 5.52093195541240966
82.009497869018190385759 119.32726031217133311 82.009497869018190385759 5.16800481321699223
84.009497869018190385759 119.39196146579953961 84.009497869018190385759 4.82382899104099927
86.009497869018218807469 119.45035177796373205 86.009497869018218807469 4.50867267941766947
88.009497869018190385759 119.50304659515128947 88.009497869018190385759 4.20149730032311908
91.009497869018190385759 119.57260146883935192 91.009497869018190385759 3.77651073711433671
94.009497869018190385759 119.63230714473873206 94.009497869018190385759 3.38121809627824943
97.009497869018190385759 119.68343259168727855 97.009497869018190385759 3.02405947975241318
99.504748934509137825444 119.72032259227719919 99.504748934509137825444 2.57011687573644032
nan nan nan nan

