Time Pressure difference Time.1 Pressure.1 difference.1
(hr) (psi) (hr) (psi)
0.000200000000006639311 0.07101627876140874 0.000200000000006639311 0.05692330262859199
0.000399999999999067768 0.13279748261262592 0.000399999999999067768 0.12134008457101331
0.000600000000019917934 0.18963560396598483 0.000600000000019917934 0.16657405605501222
0.000799999999998135536 0.24294282756251120 0.000799999999998135536 0.20855403143552245
0.001007140329448930061 0.29524927194617323 0.001007140329448930061 0.24921731952126566
0.001267914553963578328 0.35771045476423269 0.001267914553963578328 0.29692148498163318
0.001596209851982166583 0.43198488527395101 0.001596209851982166583 0.35225502793146962
0.002009509145210586212 0.51992722729575203 0.002009509145210586212 0.41609290815752947
0.002529822128153114136 0.62359879308336430 0.002529822128153114136 0.48935660787113316
0.003184857364431081805 0.74527841652348548 0.003184857364431081805 0.57301801224516280
0.004009497869020606231 0.88747471002608525 0.004009497869020606231 0.66810821800709652
0.005047658755856332391 1.05294096037772622 0.005047658755856332391 0.77573190163148587
0.006354625877790454069 1.24469395474954370 0.006354625877790454069 0.89708664971099117
0.007999999999995566213 1.46603771148646422 0.007999999999995566213 1.03348577895701998
0.010071403294347192059 1.72059272071453795 0.010071403294347192059 1.18638545126022854
0.012679145539706837553 2.01233202926000931 0.012679145539706837553 1.35742348654691303
0.015962098519764822413 2.34562816771804084 0.015962098519764822413 1.54847935523767988
0.020095091452077440408 2.72531659685631089 0.020095091452077440408 1.76174333931500859
0.025298221281346400247 3.15677410690318583 0.025298221281346400247 1.99973172925802012
0.031848573644282396344 3.64598873370275767 0.031848573644282396344 2.26514276882222143
0.040094978690177640601 4.19957110084269392 0.040094978690177640601 2.56047815197935469
0.050476587558421215363 4.82464909626237937 0.050476587558421215363 2.88747218866323063
0.063546258777947173257 5.52861517218402998 0.063546258777947173257 3.24655295378344677
0.079999999999998294697 6.31877143977914901 0.079999999999998294697 3.63660938282830593
0.100714032943528764008 7.20196791630497479 0.100714032943528764008 4.05511308940963922
0.126791455396883634421 8.18430142442659658 0.126791455396883634421 4.49878374112499380
0.159620985197506115583 9.27105707065447504 0.159620985197506115583 4.96470411680914037
0.200950914520774404082 10.46691602104669094 0.200950914520774404082 5.45047092558447233
0.252982212813464002465 11.77596077495662819 0.252982212813464002465 5.95533019653461793
0.318485736442795541734 13.20239649862893039 0.318485736442795541734 6.48177501935443878
0.400949786901833249431 14.75127810946224471 0.400949786901833249431 7.03185646854522695
0.504765875584169521062 16.42752181737835926 0.504765875584169521062 7.61155133729140587
0.635462587779429100010 18.23861002465838155 0.635462587779429100010 8.22770905597331215
0.800000000000011368684 20.19217621712343913 0.800000000000011368684 8.88989555465432879
1.007140329435344483500 22.29949656177169004 1.007140329435344483500 9.60800576154465169
1.267914553968893187630 24.57193677791211428 1.267914553968893187630 10.38895482202526033
1.596209851975103788391 27.02283864125179136 1.596209851975103788391 11.23796924087601745
2.009509145207672986544 29.66448948629603777 2.009509145207672986544 12.14917936306041923
2.529822128134725289783 32.50564271188420662 2.529822128134725289783 13.10544723712435555
3.184857364427998049905 35.54838835290876631 3.184857364427998049905 14.07739596807064153
4.009497869018190385759 38.78526998704435158 4.009497869018190385759 15.02622549303307942
5.009497869018204596614 42.08241820615745610 5.009497869018204596614 15.88110319265014247
6.009497869018190385759 44.87945877243684834 6.009497869018190385759 16.50898814923360547
7.009497869018190385759 47.30154643530671876 7.009497869018190385759 16.96996871785956529
8.009497869018204596614 49.42945366458135226 8.009497869018204596614 17.30265045645364808
9.009497869018190385759 51.31993489990377810 9.009497869018190385759 17.53282491179340141
10.009497869018190385759 53.01522062791560330 10.009497869018190385759 17.68213020241888600
11.009497869018204596614 54.54637433872479590 11.009497869018204596614 17.78784746789996873
12.009497869018190385759 55.93781351259424639 12.009497869018190385759 17.84317627475190804
13.009497869018190385759 57.20879229532057053 13.009497869018190385759 17.85781273104349509
14.009497869018204596614 58.37489199989092725 14.009497869018204596614 17.83893094636252030
15.009497869018190385759 59.44893433360102364 15.009497869018190385759 17.78741779232416320
16.009497869018190385759 60.44164386045895299 16.009497869018190385759 17.70517468388974791
17.009497869018190385759 61.36098049617904593 17.009497869018190385759 17.57986300746347652
18.009497869018204596614 62.21422422599087554 18.009497869018204596614 17.43486062814000448
19.009497869018190385759 63.00741839889901286 19.009497869018190385759 17.24434558610966661
20.009497869018190385759 63.74551487002823080 20.009497869018190385759 17.05685643035140941
21.009497869018204596614 64.43290138203506956 21.009497869018204596614 16.85669078434291279
22.009497869018190385759 65.07442007192526034 22.009497869018190385759 16.64688152786027686
23.009497869018190385759 65.67505640296322156 23.009497869018190385759 16.42226331809714779
24.009497869018204596614 66.23815944034109293 24.009497869018204596614 16.19697136523190650
25.009497869018190385759 66.76675927125961607 25.009497869018190385759 15.95949184606336146
26.009497869018190385759 67.26360137880939760 26.009497869018190385759 15.68640519623943419
27.009497869018204596614 67.73092961899290287 27.009497869018204596614 15.40724506370339064
28.009497869018190385759 68.16939092838939018 28.009497869018190385759 15.11676714736415406
29.009497869018190385759 68.58008773663594582 29.009497869018190385759 14.82241011205982062
30.009497869018190385759 68.96520051472224111 30.009497869018190385759 14.52742990221990560
31.009497869018190385759 69.32564888835202055 31.009497869018190385759 14.22444244575963346
32.009497869018190385759 69.66457131600209607 32.009497869018190385759 13.92022108583970308
33.009497869018190385759 69.98448571237619831 33.009497869018190385759 13.62109786664748157
34.009497869018190385759 70.28665188089881610 34.009497869018190385759 13.31948798381096566
35.009497869018190385759 70.57187035721661061 35.009497869018190385759 13.00577807633994709
36.009497869018190385759 70.84122245470007329 36.009497869018190385759 12.71387898423531304
37.009497869018190385759 71.09533428552873602 37.009497869018190385759 12.42399047547574931
38.009497869018190385759 71.33478604022973002 38.009497869018190385759 12.13157105965621696
39.009497869018190385759 71.56011049855051454 39.009497869018190385759 11.83322083652699597
40.009497869018190385759 71.77260597952201238 40.009497869018190385759 11.52308614907461504
41.009497869018190385759 71.97309543763735462 41.009497869018190385759 11.23645584644162021
42.009497869018190385759 72.16233160687548320 42.009497869018190385759 10.94245950582405236
43.009497869018190385759 72.34104957147913240 43.009497869018190385759 10.65818234200079573
44.009497869018190385759 72.50989989298786043 44.009497869018190385759 10.37170281405441763
46.009497869018190385759 72.82031000458268011 46.009497869018190385759 9.81909018094351715
48.009497869018190385759 73.09775393721035641 48.009497869018190385759 9.29085767501328341
50.009497869018218807469 73.34579692971641407 50.009497869018218807469 8.77947160233111212
52.009497869018190385759 73.56785296521357509 52.009497869018190385759 8.28755486909846262
54.009497869018190385759 73.76672235150778079 54.009497869018190385759 7.81908351704892102
56.009497869018190385759 73.94499641397659673 56.009497869018190385759 7.37002692252522529
58.009497869018190385759 74.10486050799666202 58.009497869018190385759 6.94230839892039508
60.009497869018190385759 74.24838147325364446 60.009497869018190385759 6.53538960268469804
62.009497869018190385759 74.37721764173954853 62.009497869018190385759 6.14771245434801550
64.009497869018190385759 74.49307043895582581 64.009497869018190385759 5.77919392100762419
66.009497869018218807469 74.59721113317499430 66.009497869018218807469 5.43321207056751643
68.009497869018190385759 74.69089539837337099 68.009497869018190385759 5.10614763749973122
70.009497869018190385759 74.77522831812653692 70.009497869018190385759 4.79244596838130565
72.009497869018190385759 74.85111512203833684 72.009497869018190385759 4.50051304103755179
74.009497869018218807469 74.91949157345528931 74.009497869018218807469 4.22233414657695771
76.009497869018190385759 74.98112119225410765 76.009497869018190385759 3.95927404368738323
78.009497869018190385759 75.03667814219276977 78.009497869018190385759 3.71005545432074291
80.009497869018218807469 75.08678930993599465 80.009497869018218807469 3.47614234229670238
82.009497869018190385759 75.13197871507082937 82.009497869018190385759 3.25392895646995806
84.009497869018190385759 75.17271647846638416 84.009497869018190385759 3.03722566102581482
86.009497869018218807469 75.20948074908827152 86.009497869018218807469 2.83879390926297726
88.009497869018190385759 75.24265896731748171 88.009497869018190385759 2.64538718909233461
91.009497869018190385759 75.28645277667664004 91.009497869018190385759 2.37780305670161907
94.009497869018190385759 75.32404523927993978 94.009497869018190385759 2.12891509765667575
97.009497869018190385759 75.35623533550680975 97.009497869018190385759 1.90403745021448212
99.504748934509137825444 75.37946237291528462 99.504748934509137825444 1.61822173657479595
nan nan nan nan

