Time Pressure difference Time.1 Pressure.1 difference.1
(hr) (psi) (hr) (psi)
0.000200000000006639311 0.73870854672406538 0.000200000000006639311 0.59211396165623620
0.000399999999999067768 1.38135420639211848 0.000399999999999067768 1.26217480127299142
0.000600000000019917934 1.97258211576382236 0.000600000000019917934 1.73269679876831306
0.000799999999998135536 2.52708176513553306 0.000799999999998135536 2.16937085640283689
0.001007140329448930061 3.07117134838127281 0.001007140329448930061 2.59234878443198857
0.001267914553963578328 3.72089012259657759 0.001267914553963578328 3.08856564279914503
0.001596209851982166583 4.49348983603590213 0.001596209851982166583 3.66414298662048354
0.002009509145210586212 5.40826262902738186 0.002009509145210586212 4.32818211328567415
0.002529822128153114136 6.48665019079852456 0.002529822128153114136 5.09026824462031602
0.003184857364431081805 7.75235686207272678 0.003184857364431081805 5.96051089207958551
0.004009497869020606231 9.23147713076153309 0.004009497869020606231 6.94963548338754222
0.005047658755856332391 10.95265057804673781 0.005047658755856332391 8.06913281991182885
0.006354625877790454069 12.94725770577711543 0.006354625877790454069 9.33146015042511401
0.007999999999995566213 15.24966678320723901 0.007999999999995566213 10.75027854385684556
0.010071403294347192059 17.89753800664828276 0.010071403294347192059 12.34073493908923957
0.012679145539706837553 20.93219885338108099 0.012679145539706837553 14.11986587476740063
0.015962098519764822413 24.39913221518472142 0.015962098519764822413 16.10722152850174638
0.020095091452077440408 28.34863636533868458 0.020095091452077440408 18.32558512758062719
0.025298221281346400247 32.83664046494392608 0.025298221281346400247 20.80113102688979865
0.031848573644282396344 37.92543182802574364 0.031848573644282396344 23.56192625216055703
0.040094978690177640601 43.68377390190291720 0.040094978690177640601 26.63399332598132574
0.050476587558421215363 50.18581069739593659 0.050476587558421215363 30.03537247227144391
0.063546258777947173257 57.50843821262015609 0.063546258777947173257 33.77051650945330863
0.079999999999998294697 65.72761272162428270 0.079999999999998294697 37.82786818804737550
0.100714032943528764008 74.91458783528999277 0.100714032943528764008 42.18112733199634334
0.126791455396883634421 85.13278246388843229 0.126791455396883634421 46.79617205229037324
0.159620985197506115583 96.43717207808232672 0.159620985197506115583 51.64265752876957549
0.200950914520774404082 108.87644998363273885 0.200950914520774404082 56.69558482397181365
0.252982212813464002465 122.49308217871549687 0.252982212813464002465 61.94711116199245282
0.318485736442795541734 137.33081063769895991 0.318485736442795541734 67.42316956406921236
0.400949786901833249431 153.44221641313177429 0.400949786901833249431 73.14509522673026254
0.504765875584169521062 170.87843772782784413 0.504765875584169521062 79.17505851829589858
0.635462587779429100010 189.71730623688767992 0.635462587779429100010 85.58430694497731395
0.800000000000011368684 210.03822516047026170 0.800000000000011368684 92.47234493615924578
1.007140329435344483500 231.95848874548789809 1.007140329435344483500 99.94209914704779862
1.267914553968893187630 255.59632275847798155 1.267914553968893187630 108.06550064871373706
1.596209851975103788391 281.09050782713870831 1.596209851975103788391 116.89691533891623010
2.009509145207672986544 308.56885632313822043 2.009509145207672986544 126.37528729614808753
2.529822128134725289783 338.12242075793272988 2.529822128134725289783 136.32234822146017450
3.184857364427998049905 369.77294159251175643 3.184857364427998049905 146.43252080512698399
4.009497869018190385759 403.44285741425545666 4.009497869018190385759 156.30220831478524701
5.009497869018204596614 437.73966388953977003 5.009497869018204596614 165.19461262158625914
6.009497869018190385759 466.83437017211264219 6.009497869018190385759 171.72584731702801264
7.009497869018190385759 492.02883105745519288 7.009497869018190385759 176.52094911420587664
8.009497869018204596614 514.16323860902764409 8.009497869018204596614 179.98149151271883284
9.009497869018190385759 533.82795028233249468 9.009497869018190385759 182.37575717071368331
10.009497869018190385759 551.46224594331818025 10.009497869018190385759 183.92882494869058974
11.009497869018204596614 567.38924679791182371 11.009497869018204596614 185.02849179844969285
12.009497869018190385759 581.86294251825984247 12.009497869018190385759 185.60401987756642939
13.009497869018190385759 595.08361397387375291 13.009497869018190385759 185.75626772193285774
14.009497869018204596614 607.21333737141446818 14.009497869018204596614 185.55986013814344915
15.009497869018190385759 618.38548360735967435 15.009497869018190385759 185.02402232996016096
16.009497869018190385759 628.71160917595045703 16.009497869018190385759 184.16853274124534323
17.009497869018190385759 638.27451280829382085 17.009497869018190385759 182.86504559724264141
18.009497869018204596614 647.14992062525800520 18.009497869018204596614 181.35673653388766979
19.009497869018190385759 655.40069530619473426 19.009497869018190385759 179.37500653786625548
20.009497869018190385759 663.07834585392106419 20.009497869018190385759 177.42475169218474207
21.009497869018204596614 670.22851339548230953 21.009497869018204596614 175.34263649203757041
22.009497869018190385759 676.90156565012443934 22.009497869018190385759 173.16020883391914253
23.009497869018190385759 683.14936121121547785 23.009497869018190385759 170.82373902452033576
24.009497869018204596614 689.00673692354803279 24.009497869018204596614 168.48026096579465616
25.009497869018190385759 694.50521163535745472 25.009497869018190385759 166.01000832032573840
26.009497869018190385759 699.67334375408609048 26.009497869018190385759 163.16937169813766673
27.009497869018204596614 704.53447378187718186 27.009497869018204596614 160.26555894695388815
28.009497869018190385759 709.09533112765836904 28.009497869018190385759 157.24401905248399203
29.009497869018190385759 713.36738322128178424 29.009497869018190385759 154.18212871466147362
30.009497869018190385759 717.37331123647345521 30.009497869018190385759 151.11375613975803844
31.009497869018190385759 721.12268108374018993 31.009497869018190385759 147.96209249951931497
32.009497869018190385759 724.64813888508058426 32.009497869018190385759 144.79759384388162857
33.009497869018190385759 727.97587589050135648 33.009497869018190385759 141.68612584816645494
34.009497869018190385759 731.11899652581996634 34.009497869018190385759 138.54879167473953316
35.009497869018190385759 734.08582793143943945 35.009497869018190385759 135.28559351957534318
36.009497869018190385759 736.88761788663498464 36.009497869018190385759 132.24927061052613908
37.009497869018190385759 739.53087918574499326 37.009497869018190385759 129.23386171058598393
38.009497869018190385759 742.02164694787984445 38.009497869018190385759 126.19212641465928471
39.009497869018190385759 744.36546312707946527 39.009497869018190385759 123.08869909367786022
40.009497869018190385759 746.57583278698871254 40.009497869018190385759 119.86269023694281088
41.009497869018190385759 748.66131626797277931 41.009497869018190385759 116.88117306935842521
42.009497869018190385759 750.62974347936165032 42.009497869018190385759 113.82303466352274768
43.009497869018190385759 752.48876073862118119 43.009497869018190385759 110.86599475355730249
44.009497869018190385759 754.24513516137380975 44.009497869018190385759 107.88604593835036383
46.009497869018190385759 757.47400896923750224 46.009497869018190385759 102.13779099981442755
48.009497869018190385759 760.35996987627629551 48.009497869018190385759 96.64313718812836385
50.009497869018218807469 762.94010335714824578 50.009497869018218807469 91.32371931444420454
52.009497869018190385759 765.24992153030984809 52.009497869018190385759 86.20682074621048230
54.009497869018190385759 767.31855308774265723 54.009497869018190385759 81.33380011361670370
56.009497869018190385759 769.17295289440369288 56.009497869018190385759 76.66273102744376899
58.009497869018190385759 770.83585293122018811 58.009497869018190385759 72.21361971818176073
60.009497869018190385759 772.32875238355018155 60.009497869018190385759 67.98086635733788796
62.009497869018190385759 773.66890115574176434 62.009497869018190385759 63.94826386336515611
64.009497869018190385759 774.87399740913861024 64.009497869018190385759 60.11494853126557558
66.009497869018218807469 775.95726482645738997 66.009497869018218807469 56.51605889090328105
68.009497869018190385759 776.93176487915832240 68.009497869018190385759 53.11394748418838674
70.009497869018190385759 777.80899260325747946 70.009497869018190385759 49.85083502404476263
72.009497869018190385759 778.59836416159487271 72.009497869018190385759 46.81416016216512332
74.009497869018218807469 779.30961332780452722 74.009497869018218807469 43.92055421096227263
76.009497869018190385759 779.95068220570203721 76.009497869018190385759 41.18421333678738705
78.009497869018190385759 780.52858342026013361 78.009497869018190385759 38.59185134347360702
80.009497869018218807469 781.04983782198121389 80.009497869018218807469 36.15869632526275979
82.009497869018190385759 781.51989624206032659 82.009497869018190385759 33.84724140014338900
84.009497869018190385759 781.94364885934146514 84.009497869018190385759 31.59310221910185490
86.009497869018218807469 782.32606936061426950 86.009497869018218807469 29.52902291890214315
88.009497869018190385759 782.67118788552795650 88.009497869018190385759 27.51721380026438268
91.009497869018190385759 783.12672937307752363 91.009497869018190385759 24.73381414863155214
94.009497869018190385759 783.51776469486298993 94.009497869018190385759 22.14489135895816219
97.009497869018190385759 783.85260481345801509 97.009497869018190385759 19.80572288899574218
99.504748934509137825444 784.09421154571668922 99.504748934509137825444 16.83267904417508021
nan nan nan nan

