Time Pressure difference Time.1 Pressure.1 difference.1
(hr) (psi) (hr) (psi)
0.000200000000006639311 0.36970239237556901 0.000200000000006639311 0.29633601662531706
0.000399999999999067768 0.69132807124808193 0.000399999999999067768 0.63168220497262817
0.000600000000019917934 0.98722064417586208 0.000600000000019917934 0.86716493887462232
0.000799999999998135536 1.26473177878130838 0.000799999999998135536 1.08570775188492563
0.001007140329448930061 1.53703297454331378 0.001007140329448930061 1.29739604574305933
0.001267914553963578328 1.86219854391968198 0.001267914553963578328 1.54573831887497271
0.001596209851982166583 2.24886249098498014 0.001596209851982166583 1.83379823364323924
0.002009509145210586212 2.70667997739259159 0.002009509145210586212 2.16613072776125648
0.002529822128153114136 3.24638195222810255 0.002529822128153114136 2.54753292921148722
0.003184857364431081805 3.87983175660755730 0.003184857364431081805 2.98306435786452440
0.004009497869020606231 4.62008893160638490 0.004009497869020606231 3.47809278197811977
0.005047658755856332391 5.48148676431933879 0.005047658755856332391 4.03836901731685316
0.006354625877790454069 6.47973029384321197 0.006354625877790454069 4.67012755878957186
0.007999999999995566213 7.63201985097365210 0.007999999999995566213 5.38020537868801618
0.010071403294347192059 8.95720328136686028 0.010071403294347192059 6.17618308450177800
0.012679145539706837553 10.47596379938299016 0.012679145539706837553 7.06658697408245917
0.015962098519764822413 12.21106428488509543 0.015962098519764822413 8.06120134932556809
0.020095091452077440408 14.18767757775197147 0.020095091452077440408 9.17142856055166256
0.025298221281346400247 16.43379461534893693 0.025298221281346400247 10.41036811996086975
0.031848573644282396344 18.98058840780553069 0.031848573644282396344 11.79206676710391832
0.040094978690177640601 21.86247308379872933 0.040094978690177640601 13.32954802648075976
0.050476587558421215363 25.11655558936591959 0.050476587558421215363 15.03184051157034595
0.063546258777947173257 28.78132016107568703 0.063546258777947173257 16.90117272999029652
0.079999999999998294697 32.89478073061497554 0.079999999999998294697 18.93176061060618309
0.100714032943528764008 37.49259768194060882 0.100714032943528764008 21.11044167133841398
0.126791455396883634421 42.60651035657375019 0.126791455396883634421 23.42013888762129170
0.159620985197506115583 48.26403239723065042 0.159620985197506115583 25.84566554927111071
0.200950914520774404082 54.48953340368424847 0.200950914520774404082 28.37451040671916402
0.252982212813464002465 61.30426638727421107 0.252982212813464002465 31.00274837607727463
0.318485736442795541734 68.73012294874473582 0.318485736442795541734 33.74335818899222517
0.400949786901833249431 76.79341839337698161 0.400949786901833249431 36.60701749801485505
0.504765875584169521062 85.51974593164617033 0.504765875584169521062 39.62484078531114307
0.635462587779429100010 94.94805806954509819 0.635462587779429100010 42.83248537962577984
0.800000000000011368684 105.11809383620142455 0.800000000000011368684 46.27975038746517811
1.007140329435344483500 116.08855563039969638 1.007140329435344483500 50.01814764098244837
1.267914553968893187630 127.91861204971894495 1.267914553968893187630 54.08367657348445334
1.596209851975103788391 140.67771880886959934 1.596209851975103788391 58.50354575397221168
2.009509145207672986544 154.42984232571760117 2.009509145207672986544 63.24719844887335540
2.529822128134725289783 169.22055176480895966 2.529822128134725289783 68.22541649914737150
3.184857364427998049905 185.06072760190741633 3.184857364427998049905 73.28526724554423311
4.009497869018190385759 201.91155257961324310 4.009497869018190385759 78.22476212549572949
5.009497869018204596614 219.07611830852556523 5.009497869018204596614 82.67515485585514057
6.009497869018190385759 233.63718243298004040 6.009497869018190385759 85.94385007101026019
7.009497869018190385759 246.24628585439086237 7.009497869018190385759 88.34366067826891822
8.009497869018204596614 257.32392054796764569 8.009497869018204596614 90.07556267036163433
9.009497869018190385759 267.16554344949906863 9.009497869018190385759 91.27382380551269137
10.009497869018190385759 275.99100150414886912 10.009497869018190385759 92.05108958318066925
11.009497869018204596614 283.96200758689082022 11.009497869018204596614 92.60144122994984173
12.009497869018190385759 291.20567622732886548 12.009497869018190385759 92.88947648914962940
13.009497869018190385759 297.82224224328649598 13.009497869018190385759 92.96567215866761558
14.009497869018204596614 303.89282011707922493 14.009497869018204596614 92.86737580900488354
15.009497869018190385759 309.48415814845236582 15.009497869018190385759 92.59920438945226806
16.009497869018190385759 314.65208715591870714 16.009497869018190385759 92.17105644260252006
17.009497869018190385759 319.43804552422619736 17.009497869018190385759 91.51869859767751336
18.009497869018204596614 323.87993200001130845 18.009497869018204596614 90.76383327002297108
19.009497869018190385759 328.00920754720959849 19.009497869018190385759 89.77203437474740610
20.009497869018190385759 331.85165094102927696 20.009497869018190385759 88.79598788741762405
21.009497869018204596614 335.43010425353548953 21.009497869018204596614 87.75394908319692888
22.009497869018190385759 338.76977508031677644 22.009497869018190385759 86.66170677739025052
23.009497869018190385759 341.89661715660264463 23.009497869018190385759 85.49237080303515768
24.009497869018204596614 344.82806532177568215 24.009497869018204596614 84.31952740135434965
25.009497869018190385759 347.57989385332217580 25.009497869018190385759 83.08323696332985264
26.009497869018190385759 350.16639541321370643 26.009497869018190385759 81.66157999218764019
27.009497869018204596614 352.59925125181598560 27.009497869018204596614 80.20830518457353264
28.009497869018190385759 354.88182924485067815 28.009497869018190385759 78.69611132598397774
29.009497869018190385759 357.01986851131067624 29.009497869018190385759 77.16372323042907055
30.009497869018190385759 359.02472032664229573 30.009497869018190385759 75.62809096155656619
31.009497869018190385759 360.90117215406792184 31.009497869018190385759 74.05077390880751409
32.009497869018190385759 362.66556243918739710 32.009497869018190385759 72.46703329981257014
33.009497869018190385759 364.33099914972314082 33.009497869018190385759 70.90983301166482988
34.009497869018190385759 365.90404067409082245 34.009497869018190385759 69.33968744513354920
35.009497869018190385759 367.38885450668647081 35.009497869018190385759 67.70655057388738385
36.009497869018190385759 368.79106983770333272 36.009497869018190385759 66.18695824146030304
37.009497869018190385759 370.11394613348784333 37.009497869018190385759 64.67783276938845916
38.009497869018190385759 371.36050379766652441 38.009497869018190385759 63.15553169291619184
39.009497869018190385759 372.53351641892476209 39.009497869018190385759 61.60235553133171749
40.009497869018190385759 373.63974289339392953 40.009497869018190385759 59.98783083488843459
41.009497869018190385759 374.68346742534737359 41.009497869018190385759 58.49566720059314662
42.009497869018190385759 375.66860865932238767 42.009497869018190385759 56.96515683914286399
43.009497869018190385759 376.59899335740607285 43.009497869018190385759 55.48524336865120432
44.009497869018190385759 377.47800826643685923 44.009497869018190385759 53.99386464963622956
46.009497869018190385759 379.09396678856279550 46.009497869018190385759 51.11702829491183309
48.009497869018190385759 380.53830726135976192 48.009497869018190385759 48.36711201403973348
50.009497869018218807469 381.82958989881785783 50.009497869018218807469 45.70489628272372329
52.009497869018190385759 382.98558749537653512 52.009497869018190385759 43.14403564207140818
54.009497869018190385759 384.02087812402578493 54.009497869018190385759 40.70522889757820195
56.009497869018190385759 384.94895191981936478 56.009497869018190385759 38.36749309667544594
58.009497869018190385759 385.78118558574732333 58.009497869018190385759 36.14084078261500110
60.009497869018190385759 386.52833884605570347 60.009497869018190385759 34.02246940221152016
62.009497869018190385759 387.19904478199708819 62.009497869018190385759 32.00426777704702630
64.009497869018190385759 387.80216081456410393 64.009497869018190385759 30.08580364759851378
66.009497869018218807469 388.34430501682271597 66.009497869018218807469 28.28466283795442138
68.009497869018190385759 388.83201427976723608 68.009497869018190385759 26.58200387757213434
70.009497869018190385759 389.27104153848227952 70.009497869018190385759 24.94890989422032845
72.009497869018190385759 389.66609931178777515 72.009497869018190385759 23.42914141951902351
74.009497869018218807469 390.02205907357608794 74.009497869018218807469 21.98097482188592267
76.009497869018190385759 390.34289561849931260 76.009497869018190385759 20.61151487449020081
78.009497869018190385759 390.63211856376824471 78.009497869018190385759 19.31411221808151524
80.009497869018218807469 390.89299140760795126 80.009497869018218807469 18.09638807607400679
82.009497869018190385759 391.12824213433935938 82.009497869018190385759 16.93957133221125133
84.009497869018190385759 391.34031813789852094 84.009497869018190385759 15.81143947063438659
86.009497869018218807469 391.53170860554774890 86.009497869018218807469 14.77842711586902702
88.009497869018190385759 391.70443050632923132 88.009497869018190385759 13.77157448439244725
91.009497869018190385759 391.93241592564015718 91.009497869018190385759 12.37856297165254738
94.009497869018190385759 392.12811786331030817 94.009497869018190385759 11.08288153780092955
97.009497869018190385759 392.29569571719719079 97.009497869018190385759 9.91219496141068745
99.504748934509137825444 392.41661294135303706 99.504748934509137825444 8.42427198158055468
nan nan nan nan

