Time Pressure difference Time.1 Pressure.1 difference.1
(hr) (psi) (hr) (psi)
0.000200000000006639311 0.17545198282230395 0.000200000000006639311 0.14063404178828606
0.000399999999999067768 0.32808789821942874 0.000399999999999067768 0.29978138541073873
0.000600000000019917934 0.46851149215125659 0.000600000000019917934 0.41153590319473604
0.000799999999998135536 0.60021169162502763 0.000799999999998135536 0.51525113648776144
0.001007140329448930061 0.72943937774936918 0.001007140329448930061 0.61571337764077405
0.001267914553963578328 0.88375524118222193 0.001267914553963578328 0.73357072760168207
0.001596209851982166583 1.06725677538270247 0.001596209851982166583 0.87027712783068978
0.002009509145210586212 1.28452609096597570 0.002009509145210586212 1.02799424368330805
0.002529822128153114136 1.54065584173537062 0.002529822128153114136 1.20899867826985852
0.003184857364431081805 1.84127608788155261 0.003184857364431081805 1.41569155966451987
0.004009497869020606231 2.19258457771150450 0.004009497869020606231 1.65062030331164999
0.005047658755856332391 2.60138354916849979 0.005047658755856332391 1.91651410991308291
0.006354625877790454069 3.07512624114593125 0.006354625877790454069 2.21633172281539004
0.007999999999995566213 3.62197552249596999 0.007999999999995566213 2.55331780683499021
0.010071403294347192059 4.25087613353003579 0.010071403294347192059 2.93106993840762309
0.012679145539706837553 4.97164383699531776 0.012679145539706837553 3.35363449617472664
0.015962098519764822413 5.79508135553868975 0.015962098519764822413 3.82565487764603240
0.020095091452077440408 6.73313512164500327 0.020095091452077440408 4.35254236771943326
0.025298221281346400247 7.79908896999610679 0.025298221281346400247 4.94051368404922542
0.031848573644282396344 9.00773687150092961 0.031848573644282396344 5.59623507591372338
0.040094978690177640601 10.37541095502312416 0.040094978690177640601 6.32588719900781804
0.050476587558421215363 11.91972129664823221 0.050476587558421215363 7.13375481905033393
0.063546258777947173257 13.65893160186642774 0.063546258777947173257 8.02089553287675017
0.079999999999998294697 15.61108238063084031 0.079999999999998294697 8.98456435757581495
0.100714032943528764008 17.79309720498876146 0.100714032943528764008 10.01851469148263618
0.126791455396883634421 20.22003881328923924 0.126791455396883634421 11.11464218395586734
0.159620985197506115583 22.90496452749929190 0.159620985197506115583 12.26573958270493314
0.200950914520774404082 25.85943958140947530 0.200950914520774404082 13.46586934556163584
0.252982212813464002465 29.09355014989284527 0.252982212813464002465 14.71316872085023242
0.318485736442795541734 32.61768546720089290 0.318485736442795541734 16.01379710664037503
0.400949786901833249431 36.44433415278908228 0.400949786901833249431 17.37282186346467938
0.504765875584169521062 40.58564213705241741 0.504765875584169521062 18.80500918624935380
0.635462587779429100010 45.06009535503835650 0.635462587779429100010 20.32728119711053694
0.800000000000011368684 49.88655300701084627 0.800000000000011368684 21.96327137032245957
1.007140329435344483500 55.09287385849476948 1.007140329435344483500 23.73742599911031448
1.267914553968893187630 60.70713792190051805 1.267914553968893187630 25.66682956029770324
1.596209851975103788391 66.76230723132795219 1.596209851975103788391 27.76439459510545760
2.009509145207672986544 73.28873873084903323 2.009509145207672986544 30.01561960285515340
2.529822128134725289783 80.30805846465509035 2.529822128134725289783 32.37816376230723137
3.184857364427998049905 87.82543004836283274 3.184857364427998049905 34.77944886229217758
4.009497869018190385759 95.82243173269780812 4.009497869018190385759 37.12361592396408128
5.009497869018204596614 103.96832733285958739 5.009497869018204596614 39.23566671125329464
6.009497869018190385759 110.87866284954985474 6.009497869018190385759 40.78691189810655970
7.009497869018190385759 116.86264413428719422 7.009497869018190385759 41.92580506765305159
8.009497869018204596614 122.11982670073039969 8.009497869018204596614 42.74772465712077718
9.009497869018190385759 126.79042739976227949 9.009497869018190385759 43.31639095854840349
10.009497869018190385759 130.97878037485031655 10.009497869018190385759 43.68526285303489232
11.009497869018204596614 134.76163071920245784 11.009497869018204596614 43.94644668539992693
12.009497869018190385759 138.19930397229165919 12.009497869018190385759 44.08314138468118415
13.009497869018190385759 141.33936920020374828 13.009497869018190385759 44.11930204140158196
14.009497869018204596614 144.22032141149526296 14.009497869018204596614 44.07265292630739850
15.009497869018190385759 146.87383776536722735 15.009497869018190385759 43.94538513397734647
16.009497869018190385759 149.32641424348682335 16.009497869018190385759 43.74219627784525954
17.009497869018190385759 151.59771651997175468 17.009497869018190385759 43.43260272432152647
18.009497869018204596614 153.70573044068333957 18.009497869018204596614 43.07436155187529891
19.009497869018190385759 155.66538663257406938 19.009497869018190385759 42.60367733038859939
20.009497869018190385759 157.48891909065798700 20.009497869018190385759 42.14046882792700899
21.009497869018204596614 159.18716812032189978 21.009497869018204596614 41.64594193778837905
22.009497869018190385759 160.77209664828592395 22.009497869018190385759 41.12758965706656511
23.009497869018190385759 162.25602170143852732 23.009497869018190385759 40.57265055059295378
24.009497869018204596614 163.64721744084272359 24.009497869018204596614 40.01604690233765638
25.009497869018190385759 164.95316996428846323 25.009497869018190385759 39.42933279615653674
26.009497869018190385759 166.18066222999971160 26.009497869018190385759 38.75464813188565927
27.009497869018204596614 167.33523788221776840 27.009497869018204596614 38.06495839267896741
28.009497869018190385759 168.41849523484438578 28.009497869018190385759 37.34730706995849658
29.009497869018190385759 169.43315793757116694 29.009497869018190385759 36.62007204155955264
30.009497869018190385759 170.38461303637259903 30.009497869018190385759 35.89129740548447245
31.009497869018190385759 171.27513254769323225 31.009497869018190385759 35.14274016011203372
32.009497869018190385759 172.11247031012283060 32.009497869018190385759 34.39113444736868530
33.009497869018190385759 172.90284705410590504 33.009497869018190385759 33.65212414112907169
34.009497869018190385759 173.64937523516175588 34.009497869018190385759 32.90697031294473618
35.009497869018190385759 174.35403264724104133 35.009497869018190385759 32.13192230625163148
36.009497869018190385759 175.01949077043548186 36.009497869018190385759 31.41075984340488958
37.009497869018190385759 175.64729647012981673 37.009497869018190385759 30.69456470411656213
38.009497869018190385759 176.23888315821463380 38.009497869018190385759 29.97211673562124190
39.009497869018190385759 176.79556711406598879 39.009497869018190385759 29.23501618436081273
40.009497869018190385759 177.32055594940729293 40.009497869018190385759 28.46880107418434491
41.009497869018190385759 177.81588284592757532 41.009497869018190385759 27.76065562062047576
42.009497869018190385759 178.28340749933943243 42.009497869018190385759 27.03431172027119089
43.009497869018190385759 178.72494600012493038 43.009497869018190385759 26.33197990376666908
44.009497869018190385759 179.14210561797003152 44.009497869018190385759 25.62420695236973600
46.009497869018190385759 179.90900118779251216 46.009497869018190385759 24.25892868233103883
48.009497869018190385759 180.59445090369615627 48.009497869018190385759 22.95388366767987520
50.009497869018218807469 181.20726300282879606 50.009497869018218807469 21.69045925281804088
52.009497869018190385759 181.75587203170414341 52.009497869018190385759 20.47513555894914461
54.009497869018190385759 182.24719639784274250 54.009497869018190385759 19.31773574800321569
56.009497869018190385759 182.68763819923631786 56.009497869018190385759 18.20830180859173453
58.009497869018190385759 183.08259654916821546 58.009497869018190385759 17.15158545615626906
60.009497869018190385759 183.43717775745017207 60.009497869018190385759 16.14625666545631333
62.009497869018190385759 183.75547887959183413 62.009497869018190385759 15.18846606368333241
64.009497869018190385759 184.04170343742026716 64.009497869018190385759 14.27800851072471922
66.009497869018218807469 184.29899221137350196 66.009497869018218807469 13.42322982140209753
68.009497869018190385759 184.53044745480480060 68.009497869018190385759 12.61518828088169109
70.009497869018190385759 184.73879937419496855 70.009497869018190385759 11.84016062776558087
72.009497869018190385759 184.92628441915354642 72.009497869018190385759 11.11891457197512878
74.009497869018218807469 185.09521447559541230 74.009497869018218807469 10.43164906801366065
76.009497869018190385759 185.24747588674546250 76.009497869018190385759 9.78173587263941791
78.009497869018190385759 185.38473423365272197 78.009497869018190385759 9.16601935773360132
80.009497869018218807469 185.50853829513599180 80.009497869018218807469 8.58811637508597059
82.009497869018190385759 185.62018270782206741 82.009497869018190385759 8.03911859833754328
84.009497869018190385759 185.72082894679928700 84.009497869018190385759 7.50373398606377773
86.009497869018218807469 185.81165832127689441 86.009497869018218807469 7.01349083464970846
88.009497869018190385759 185.89362803690198689 88.009497869018190385759 6.53566246716929733
91.009497869018190385759 186.00182450708345527 91.009497869018190385759 5.87457225773341296
94.009497869018190385759 186.09470000292691338 94.009497869018190385759 5.25967259421061062
97.009497869018190385759 186.17422847595798885 97.009497869018190385759 4.70409252405930900
99.504748934509137825444 186.23161292132007816 99.504748934509137825444 3.99795958447890731
nan nan nan nan

