Time Pressure difference Time.1 Pressure.1 difference.1
(hr) (psi) (hr) (psi)
0.000200000000006639311 0.50338009357351488 0.000200000000006639311 0.40348576274972547
0.000399999999999067768 0.94129980322478946 0.000399999999999067768 0.86008707004747675
0.000600000000019917934 1.34418178105301012 0.000600000000019917934 1.18071610321346876
0.000799999999998135536 1.72203592478132927 0.000799999999998135536 1.47828004635179155
0.001007140329448930061 2.09279630997140442 0.001007140329448930061 1.76651100013603002
0.001267914553963578328 2.53553587053470819 0.001267914553963578328 2.10464934942863513
0.001596209851982166583 3.06201051032418237 0.001596209851982166583 2.49686652151424093
0.002009509145210586212 3.68536652289047817 0.002009509145210586212 2.94936443723425290
0.002529822128153114136 4.42021497450267020 0.002529822128153114136 3.46867477932185553
0.003184857364431081805 5.28270877594588217 0.003184857364431081805 4.06168649856130060
0.004009497869020606231 6.29062956224372094 0.004009497869020606231 4.73570825116794847
0.005047658755856332391 7.46349327797152906 0.005047658755856332391 5.49857024391729698
0.006354625877790454069 8.82268362043058829 0.006354625877790454069 6.35876125236320267
0.007999999999995566213 10.39162024906582005 0.007999999999995566213 7.32559037437181804
0.010071403294347192059 12.19596604977069632 0.010071403294347192059 8.40937922805044202
0.012679145539706837553 14.26388291328418489 0.012679145539706837553 9.62173706640606063
0.015962098519764822413 16.62636436529552597 0.015962098519764822413 10.97598601800825868
0.020095091452077440408 19.31768528948149921 0.020095091452077440408 12.48765131690932684
0.025298221281346400247 22.37595764010787391 0.025298221281346400247 14.17456902209361047
0.031848573644282396344 25.84362602418719135 0.031848573644282396344 16.05586492018104039
0.040094978690177640601 29.76754809714967820 0.040094978690177640601 18.14927160667719264
0.050476587558421215363 34.19824800585980995 0.050476587558421215363 20.46708227846583839
0.063546258777947173257 39.18812519106915460 0.063546258777947173257 23.01233123122972657
0.079999999999998294697 44.78893873490514466 0.079999999999998294697 25.77714297828299195
0.100714032943528764008 51.04924317145584922 0.100714032943528764008 28.74359572199185209
0.126791455396883634421 58.01225421431793450 0.126791455396883634421 31.88843769444481069
0.159620985197506115583 65.71543394199201771 0.159620985197506115583 35.19099094561772745
0.200950914520774404082 74.19196356094860789 0.200950914520774404082 38.63422038428993943
0.252982212813464002465 83.47078078719256666 0.252982212813464002465 42.21278168720126445
0.318485736442795541734 93.58169282851682169 0.318485736442795541734 45.94434646071822215
0.400949786901833249431 104.56053012883533881 0.400949786901833249431 49.84345320351175701
0.504765875584169521062 116.44213994082895169 0.504765875584169521062 53.95246683197731841
0.635462587779429100010 129.27955929243148603 0.635462587779429100010 58.31993772028143042
0.800000000000011368684 143.12689612725731081 0.800000000000011368684 63.01367143152038608
1.007140329435344483500 158.06407857020522556 1.007140329435344483500 68.10380554506649275
1.267914553968893187630 174.17166951402413133 1.267914553968893187630 73.63935623847318368
1.596209851975103788391 191.54423860416710568 1.596209851975103788391 79.65737020738589536
2.009509145207672986544 210.26888135874543195 2.009509145207672986544 86.11624195581062224
2.529822128134725289783 230.40764392835569652 2.529822128134725289783 92.89449365138145254
3.184857364427998049905 251.97534097208861681 3.184857364427998049905 99.78389495014779698
4.009497869018190385759 274.91911961404969134 4.009497869018190385759 106.50942187708740505
5.009497869018204596614 298.29008199070432283 5.009497869018204596614 112.56899615966717931
6.009497869018190385759 318.11616365168470111 6.009497869018190385759 117.01959246956762684
7.009497869018190385759 335.28449090908588914 7.009497869018190385759 120.28713120600457387
8.009497869018204596614 350.36759803423842641 8.009497869018204596614 122.64525764721555845
9.009497869018190385759 363.76777384931796178 9.009497869018190385759 124.27678834535909402
10.009497869018190385759 375.78435798022530889 10.009497869018190385759 125.33509937596916473
11.009497869018204596614 386.63753575390222750 11.009497869018204596614 126.08444822834978538
12.009497869018190385759 396.50038401574158797 12.009497869018190385759 126.47663182985911590
13.009497869018190385759 405.50938068153698168 13.009497869018190385759 126.58037847592598268
14.009497869018204596614 413.77496976393274508 14.009497869018204596614 126.44653994333431513
15.009497869018190385759 421.38803454111308611 15.009497869018190385759 126.08140258676834833
16.009497869018190385759 428.42459324619431982 16.009497869018190385759 125.49844408286557496
17.009497869018190385759 434.94106763468090548 17.009497869018190385759 124.61020543525580706
18.009497869018204596614 440.98905995481771924 18.009497869018204596614 123.58239445240415932
19.009497869018190385759 446.61140688631360263 19.009497869018190385759 122.23197900742441391
20.009497869018190385759 451.84320834343537854 20.009497869018190385759 120.90301175631439889
21.009497869018204596614 456.71556567854258901 21.009497869018204596614 119.48419055960711432
22.009497869018190385759 461.26280109805844631 22.009497869018190385759 117.99701318277431028
23.009497869018190385759 465.52025273865109511 23.009497869018190385759 116.40486646062979048
24.009497869018204596614 469.51165956241777621 24.009497869018204596614 114.80794408884970892
25.009497869018190385759 473.25849954039910017 25.009497869018190385759 113.12463337944910791
26.009497869018190385759 476.78023330273725833 26.009497869018190385759 111.18893094981480374
27.009497869018204596614 480.09276582874377937 27.009497869018204596614 109.21017824566227716
28.009497869018190385759 483.20068275711309980 28.009497869018190385759 107.15120242690473162
29.009497869018190385759 486.11179836850777747 29.009497869018190385759 105.06473050018873039
30.009497869018190385759 488.84156835435464927 30.009497869018190385759 102.97384136573521118
31.009497869018190385759 491.39651123802457278 31.009497869018190385759 100.82619498317858131
32.009497869018190385759 493.79887315166189410 32.009497869018190385759 98.66980240256967249
33.009497869018190385759 496.06650166713711769 33.009497869018190385759 96.54954664300127831
34.009497869018190385759 498.20832656754743084 34.009497869018190385759 94.41166482642476865
35.009497869018190385759 500.23002223791769438 35.009497869018190385759 92.18801518817433305
36.009497869018190385759 502.13925328184461705 36.009497869018190385759 90.11896574119737124
37.009497869018190385759 503.94045772977716524 37.009497869018190385759 88.06416778204869900
38.009497869018190385759 505.63774810868727627 38.009497869018190385759 85.99143015815141666
39.009497869018190385759 507.23490088678460097 39.009497869018190385759 83.87665357655899356
40.009497869018190385759 508.74111885484717277 40.009497869018190385759 81.67834593902890106
41.009497869018190385759 510.16223530795883789 41.009497869018190385759 79.64664291154207376
42.009497869018190385759 511.50358580167630862 42.009497869018190385759 77.56272767363520870
43.009497869018190385759 512.77038078607267835 43.009497869018190385759 75.54770424771152193
44.009497869018190385759 513.96723159441398820 44.009497869018190385759 73.51706994667983963
46.009497869018190385759 516.16749150307134641 46.009497869018190385759 69.60002157668786538
48.009497869018190385759 518.13407937846159257 48.009497869018190385759 65.85578528465298120
50.009497869018218807469 519.89226647240161583 50.009497869018218807469 62.23096047534699693
52.009497869018190385759 521.46625190048450804 52.009497869018190385759 58.74413892508027857
54.009497869018190385759 522.87588490333450864 54.009497869018190385759 55.42350375319970368
56.009497869018190385759 524.13953340495186239 56.009497869018190385759 52.24048495084057464
58.009497869018190385759 525.27268771844694584 58.009497869018190385759 49.20871541587692377
60.009497869018190385759 526.28999808982723607 60.009497869018190385759 46.32437924255918205
62.009497869018190385759 527.20321916644809335 62.009497869018190385759 43.57643239699623194
64.009497869018190385759 528.02441105259867982 64.009497869018190385759 40.96428632243639356
66.009497869018218807469 528.76258479691682624 66.009497869018218807469 38.51188555902268718
68.009497869018190385759 529.42664091199958420 68.009497869018190385759 36.19357590110103473
70.009497869018190385759 530.02441249024980152 70.009497869018190385759 33.96998465823219959
72.009497869018190385759 530.56231601209526616 72.009497869018190385759 31.90069537911912079
74.009497869018218807469 531.04698438831542262 74.009497869018218807469 29.92889792132490001
76.009497869018190385759 531.48382962744835822 76.009497869018190385759 28.06426601554880307
78.009497869018190385759 531.87763036083708812 78.009497869018190385759 26.29774601444997373
80.009497869018218807469 532.23283010866407494 80.009497869018218807469 24.63971483804427365
82.009497869018190385759 532.55314324506093726 82.009497869018190385759 23.06461407380175999
84.009497869018190385759 532.84190209736459565 84.009497869018190385759 21.52857012668297898
86.009497869018218807469 533.10249589794921121 86.009497869018218807469 20.12203918036404460
88.009497869018190385759 533.33767091539732519 88.009497869018190385759 18.75112684033095789
91.009497869018190385759 533.64809174056085794 91.009497869018190385759 16.85442754897324491
94.009497869018190385759 533.91455596077844348 94.009497869018190385759 15.09025113338996604
97.009497869018190385759 534.14272693697478189 97.009497869018190385759 13.49626545593206650
99.504748934509137825444 534.30736564331118643 99.504748934509137825444 11.47033642689781807
nan nan nan nan

