Time Pressure difference Time.1 Pressure.1 difference.1
(hr) (psi) (hr) (psi)
0.000200000000006639311 0.74010102277821066 0.000200000000006639311 0.59323010484503214
0.000399999999999067768 1.38395807860020925 0.000399999999999067768 1.26455401861752104
0.000600000000019917934 1.97630046093962619 0.000600000000019917934 1.73596295673017620
0.000799999999998135536 2.53184534998970001 0.000799999999998135536 2.17346015113686652
0.001007140329448930061 3.07696054979198186 0.001007140329448930061 2.59723539854024876
0.001267914553963578328 3.72790405308215034 0.001267914553963578328 3.09438763270074579
0.001596209851982166583 4.50196012790401934 0.001596209851982166583 3.67104994795247297
0.002009509145210586212 5.41845728054298448 0.002009509145210586212 4.33634079775935177
0.002529822128153114136 6.49887761811388565 0.002529822128153114136 5.09986347222563285
0.003184857364431081805 7.76697016435750154 0.003184857364431081805 5.97174653937851030
0.004009497869020606231 9.24887859566400472 0.004009497869020606231 6.96273564452493687
0.005047658755856332391 10.97329647923061557 0.005047658755856332391 8.08434324935558379
0.006354625877790454069 12.97166346959573424 0.006354625877790454069 9.34905008473317345
0.007999999999995566213 15.27841262068736583 0.007999999999995566213 10.77054297089521739
0.010071403294347192059 17.93127511881915481 0.010071403294347192059 12.36399739891787064
0.012679145539706837553 20.97165634415088320 0.012679145539706837553 14.14648202156243784
0.015962098519764822413 24.44512492435566386 0.015962098519764822413 16.13758386880052598
0.020095091452077440408 28.40207394566920129 0.020095091452077440408 18.36012911462601949
0.025298221281346400247 32.89853799645182875 0.025298221281346400247 20.84034145295368035
0.031848573644282396344 37.99692180319638624 0.031848573644282396344 23.60634081625511271
0.040094978690177640601 43.76611843329198592 0.040094978690177640601 26.68419877994170619
0.050476587558421215363 50.28041166006774887 0.050476587558421215363 30.09198957400993990
0.063546258777947173257 57.61684243168259201 0.063546258777947173257 33.83417441050788455
0.079999999999998294697 65.85151020083564788 0.079999999999998294697 37.89917425437734266
0.100714032943528764008 75.05580289247244252 0.100714032943528764008 42.26063935335731259
0.126791455396883634421 85.29325896240659688 0.126791455396883634421 46.88438349819478645
0.159620985197506115583 96.61895751084026074 0.159620985197506115583 51.74000466831485312
0.200950914520774404082 109.08168363110425503 0.200950914520774404082 56.80245680290484245
0.252982212813464002465 122.72398337038131899 0.252982212813464002465 62.06388234231665280
0.318485736442795541734 137.58968115727992654 0.318485736442795541734 67.55026319189968831
0.400949786901833249431 153.73145716037615216 0.400949786901833249431 73.28297476532918608
0.504765875584169521062 171.20054599875683721 0.504765875584169521062 79.32430462294867368
0.635462587779429100010 190.07492604129274127 0.635462587779429100010 85.74563457352580542
0.800000000000011368684 210.43415018433543651 0.800000000000011368684 92.64665661370148086
1.007140329435344483500 232.39573377611085903 1.007140329435344483500 100.13049141688199484
1.267914553968893187630 256.07812544039779823 1.267914553968893187630 108.26920564522404788
1.596209851975103788391 281.62036740833974591 1.596209851975103788391 117.11726767697261664
2.009509145207672986544 309.15051297973224109 2.009509145207672986544 126.61350649934536250
2.529822128134725289783 338.75978630130305191 2.529822128134725289783 136.57931777512931149
3.184857364427998049905 370.46996881511785205 3.184857364427998049905 146.70854817704992001
4.009497869018190385759 404.20335290419751573 4.009497869018190385759 156.59684018719767096
5.009497869018204596614 438.56480934456249088 5.009497869018204596614 165.50600680183430313
6.009497869018190385759 467.71435955980746257 6.009497869018190385759 172.04955296701299972
7.009497869018190385759 492.95631236010825660 7.009497869018190385759 176.85369359886979623
8.009497869018204596614 515.13244358284293867 8.009497869018204596614 180.32075916872773291
9.009497869018190385759 534.83422351566389352 9.009497869018190385759 182.71953805133708215
10.009497869018190385759 552.50176007327729621 10.009497869018190385759 184.27553338403211569
11.009497869018204596614 568.45878354965157087 11.009497869018204596614 185.37727312134967406
12.009497869018190385759 582.95976239105573313 12.009497869018190385759 185.95388607903211664
13.009497869018190385759 596.20535499927211731 13.009497869018190385759 186.10642091273760457
14.009497869018204596614 608.35794309690254522 14.009497869018204596614 185.90964309787605657
15.009497869018190385759 619.55114898644978894 15.009497869018190385759 185.37279522784888286
16.009497869018190385759 629.89673944772425784 16.009497869018190385759 184.51569302916473703
17.009497869018190385759 639.47766928861108227 17.009497869018190385759 183.20974879346741204
18.009497869018204596614 648.36980737478734227 18.009497869018204596614 181.69859654620415768
19.009497869018190385759 656.63613488264365969 19.009497869018190385759 179.71313096112331209
20.009497869018190385759 664.32825791019615735 20.009497869018190385759 177.75919985748575414
21.009497869018204596614 671.49190361865942123 21.009497869018204596614 175.67315984075017354
22.009497869018190385759 678.17753467114255272 22.009497869018190385759 173.48661827564188798
23.009497869018190385759 684.43710741519521434 23.009497869018190385759 171.14574418762029495
24.009497869018204596614 690.30552436355469581 24.009497869018204596614 168.79784863962274244
25.009497869018190385759 695.81436377793124848 25.009497869018190385759 166.32293953299367217
26.009497869018190385759 700.99223789876862156 26.009497869018190385759 163.47694827061292244
27.009497869018204596614 705.86253122538687421 27.009497869018204596614 160.56766179134024242
28.009497869018190385759 710.43198585174434356 28.009497869018190385759 157.54042625145191892
29.009497869018190385759 714.71209082396092072 29.009497869018190385759 154.47276420705478017
30.009497869018190385759 718.72557007009550034 30.009497869018190385759 151.39860770646822630
31.009497869018190385759 722.48200753253127004 31.009497869018190385759 148.24100313571068455
32.009497869018190385759 726.01411087166877678 32.009497869018190385759 145.07053935536870881
33.009497869018190385759 729.34812070839109310 33.009497869018190385759 141.95320619849289301
34.009497869018190385759 732.49716617054343715 34.009497869018190385759 138.80995810579466365
35.009497869018190385759 735.46959009530644380 35.009497869018190385759 135.54060877597416379
36.009497869018190385759 738.27666146417823256 36.009497869018190385759 132.49856235531504467
37.009497869018190385759 740.92490534820638004 37.009497869018190385759 129.47746936696785269
38.009497869018190385759 743.42036824278636686 38.009497869018190385759 126.43000035700546846
39.009497869018190385759 745.76860254861958310 39.009497869018190385759 123.32072303164898130
40.009497869018190385759 747.98313878658723297 40.009497869018190385759 120.08863310261094171
41.009497869018190385759 750.07255343341671505 41.009497869018190385759 117.10149573301414705
42.009497869018190385759 752.04469115792778666 42.009497869018190385759 114.03759269304870827
43.009497869018190385759 753.90721269100311019 43.009497869018190385759 111.07497872104751480
44.009497869018190385759 755.66689790437351348 44.009497869018190385759 108.08941266019456862
46.009497869018190385759 758.90185818501356607 46.009497869018190385759 102.33032217983291901
48.009497869018190385759 761.79325916916286587 48.009497869018190385759 96.82531086803058429
50.009497869018218807469 764.37825623812307185 50.009497869018218807469 91.49586581645070282
52.009497869018190385759 766.69242845119640606 52.009497869018190385759 86.36932182207515041
54.009497869018190385759 768.76495940836048248 54.009497869018190385759 81.48711547669608990
56.009497869018190385759 770.62285478487387991 56.009497869018190385759 76.80724135925798635
58.009497869018190385759 772.28888941176921890 58.009497869018190385759 72.34974341227824368
60.009497869018190385759 773.78460300067274602 60.009497869018190385759 68.10901125150817847
62.009497869018190385759 775.12727797224647475 62.009497869018190385759 64.06880724482294909
64.009497869018190385759 776.33464584911803286 64.009497869018190385759 60.22826605912847242
66.009497869018218807469 777.41995524083347391 66.009497869018218807469 56.62259246091440446
68.009497869018190385759 778.39629223991073559 68.009497869018190385759 53.21406802610014353
70.009497869018190385759 779.27517355067175231 70.009497869018190385759 49.94480455283655118
72.009497869018190385759 780.06603308555634158 72.009497869018190385759 46.90240551591096363
74.009497869018218807469 780.77862296649982454 74.009497869018218807469 44.00334507658142513
76.009497869018190385759 781.42090026829532690 76.009497869018190385759 41.26184616117340909
78.009497869018190385759 781.99989083481295893 78.009497869018190385759 38.66459752885245393
80.009497869018218807469 782.52212780845070483 80.009497869018218807469 36.22685597903328159
82.009497869018190385759 782.99307229529699725 82.009497869018190385759 33.91104392870162343
84.009497869018190385759 783.41762369225261864 84.009497869018190385759 31.65265566343569503
86.009497869018218807469 783.80076506157683980 86.009497869018218807469 29.58468554457396849
88.009497869018190385759 784.14653413978896879 88.009497869018190385759 27.56908413730540985
91.009497869018190385759 784.60293432948287773 91.009497869018190385759 24.78043773797864091
94.009497869018190385759 784.99470675837824274 94.009497869018190385759 22.18663479224554891
97.009497869018190385759 785.33017805533074807 97.009497869018190385759 19.84305695664700409
99.504748934509137825444 785.57224021969545902 99.504748934509137825444 16.86440888214713496
nan nan nan nan

