Time Pressure difference Time.1 Pressure.1 difference.1
(hr) (psi) (hr) (psi)
0.000200000000006639311 0.32653563469706570 0.000200000000006639311 0.26173557777264350
0.000399999999999067768 0.61060803279727016 0.000399999999999067768 0.55792646729220818
0.000600000000019917934 0.87195194372594975 0.000600000000019917934 0.76591404205686986
0.000799999999998135536 1.11706064830213481 0.000799999999998135536 0.95893961513000026
0.001007140329448930061 1.35756773081132587 0.001007140329448930061 1.14591100838699611
0.001267914553963578328 1.64476669886691296 0.001267914553963578328 1.36525663192535274
0.001596209851982166583 1.98628344307336291 0.001596209851982166583 1.61968243235156129
0.002009509145210586212 2.39064578040889941 0.002009509145210586212 1.91321150907726767
0.002529822128153114136 2.86733170545194005 0.002529822128153114136 2.25008087344668084
0.003184857364431081805 3.42681938577955592 0.003184857364431081805 2.63475929159785682
0.004009497869020606231 4.08064351962974481 0.004009497869020606231 3.07198778671890427
0.005047658755856332391 4.84146382761915195 0.005047658755856332391 3.56684570456045913
0.006354625877790454069 5.72315161546603868 0.006354625877790454069 4.12483959523975319
0.007999999999995566213 6.74089888908972235 0.007999999999995566213 4.75200814049845466
0.010071403294347192059 7.91135280406978758 0.010071403294347192059 5.45504682981418831
0.012679145539706837553 9.25278158551906316 0.012679145539706837553 6.24148642343629678
0.015962098519764822413 10.78529030058589555 0.015962098519764822413 7.11996880006344934
0.020095091452077440408 12.53111258750597834 0.020095091452077440408 8.10056496214450128
0.025298221281346400247 14.51497113860386357 0.025298221281346400247 9.19484491198050335
0.031848573644282396344 16.76439917751562092 0.031848573644282396344 10.41521528017276488
0.040094978690177640601 19.30979261073748177 0.040094978690177640601 11.77317895370899414
0.050476587558421215363 22.18392574653976723 0.050476587558421215363 13.27671035767701113
0.063546258777947173257 25.42078937014029805 0.063546258777947173257 14.92777779729839693
0.079999999999998294697 29.05395887506294983 0.079999999999998294697 16.72127255437721161
0.100714032943528764008 33.11493090928464511 0.100714032943528764008 18.64556900914823956
0.126791455396883634421 37.63173890251053422 0.126791455396883634421 20.68558406458452836
0.159620985197506115583 42.62868398173479534 0.159620985197506115583 22.82790422336751490
0.200950914520774404082 48.12729033206763063 0.200950914520774404082 25.06147905979526769
0.252982212813464002465 54.14632944563390993 0.252982212813464002465 27.38284178602682317
0.318485736442795541734 60.70513684173498348 0.318485736442795541734 29.80345572624736761
0.400949786901833249431 67.82695522880190708 0.400949786901833249431 32.33275180144814698
0.504765875584169521062 75.53438953284755542 0.504765875584169521062 34.99821154107518595
0.635462587779429100010 83.86184413298805396 0.635462587779429100010 37.83132889462239490
0.800000000000011368684 92.84441809638128973 0.800000000000011368684 40.87608838365569142
1.007140329435344483500 102.53395968108749514 1.007140329435344483500 44.17798727612197496
1.267914553968893187630 112.98272891020376107 1.267914553968893187630 47.76882168166517317
1.596209851975103788391 124.25207179163811588 1.596209851975103788391 51.67262327422404411
2.009509145207672986544 136.39848597130236385 2.009509145207672986544 55.86240314975820098
2.529822128134725289783 149.46221992033031256 2.529822128134725289783 60.25936033540511971
3.184857364427998049905 163.45288370111973109 3.184857364427998049905 64.72841871593264784
4.009497869018190385759 178.33619239140980994 4.009497869018190385759 69.09117408071092825
5.009497869018204596614 193.49660920282201459 5.009497869018204596614 73.02193526816584779
6.009497869018190385759 206.35751141443998335 6.009497869018190385759 75.90897492147610137
7.009497869018190385759 217.49436547214560278 7.009497869018190385759 78.02858165368760979
8.009497869018204596614 227.27856635969271792 8.009497869018204596614 79.55826533408588830
9.009497869018190385759 235.97107321622422660 9.009497869018190385759 80.61661650618731301
10.009497869018190385759 243.76606347541587638 10.009497869018190385759 81.30312808759272514
11.009497869018204596614 250.80636828296010776 11.009497869018204596614 81.78922022004985593
12.009497869018190385759 257.20426017065392443 12.009497869018190385759 82.04362424371220186
13.009497869018190385759 263.04827045593475532 13.009497869018190385759 82.11092324371961126
14.009497869018204596614 268.41004262694946192 14.009497869018204596614 82.02410405729432341
15.009497869018190385759 273.34853139665568733 15.009497869018190385759 81.78724455490228706
16.009497869018190385759 277.91304873093383776 16.009497869018190385759 81.40908751710090030
17.009497869018190385759 282.14019463439188939 17.009497869018190385759 80.83289951470952417
18.009497869018204596614 286.06344276460509946 18.009497869018204596614 80.16617288821237253
19.009497869018190385759 289.71058067729057939 19.009497869018190385759 79.29017725377876502
20.009497869018190385759 293.10437719650235522 20.009497869018190385759 78.42809476308637784
21.009497869018204596614 296.26500733504354912 21.009497869018204596614 77.50772527310613214
22.009497869018190385759 299.21473542875435214 22.009497869018190385759 76.54301408398498552
23.009497869018190385759 301.97648483323285973 23.009497869018190385759 75.51021074693689172
24.009497869018204596614 304.56565468156833276 24.009497869018204596614 74.47430951268397337
25.009497869018190385759 306.99617743353690003 25.009497869018190385759 73.38236937062467291
26.009497869018190385759 309.28067692805501565 26.009497869018190385759 72.12670624545387454
27.009497869018204596614 311.42947050301637546 27.009497869018204596614 70.84311700859696259
28.009497869018190385759 313.44553279818256897 28.009497869018190385759 69.50748815797831526
29.009497869018190385759 315.33393282825744564 29.009497869018190385759 68.15402296623584277
30.009497869018190385759 317.10469648436009038 30.009497869018190385759 66.79769239354054378
31.009497869018190385759 318.76205224154017515 31.009497869018190385759 65.40454418687517091
32.009497869018190385759 320.32043085495081414 32.009497869018190385759 64.00572244371393538
33.009497869018190385759 321.79140979514153287 33.009497869018190385759 62.63034215154578277
34.009497869018190385759 323.18078168766214731 34.009497869018190385759 61.24352808242492330
35.009497869018190385759 324.49222742680967713 35.009497869018190385759 59.80107762552387385
36.009497869018190385759 325.73071893386600095 36.009497869018190385759 58.45891415300354055
37.009497869018190385759 326.89913509718610385 37.009497869018190385759 57.12599542155026455
38.009497869018190385759 328.00014365556609164 38.009497869018190385759 55.78143948018397680
39.009497869018190385759 329.03619435117838066 39.009497869018190385759 54.40961345422707041
40.009497869018190385759 330.01325690584138783 40.009497869018190385759 52.98360199917642177
41.009497869018190385759 330.93511529658746895 41.009497869018190385759 51.66566462726588327
42.009497869018190385759 331.80523062377062615 42.009497869018190385759 50.31385792383805011
43.009497869018190385759 332.62698283356581896 43.009497869018190385759 49.00674037645463699
44.009497869018190385759 333.40336323344416769 44.009497869018190385759 47.68949627246590239
46.009497869018190385759 334.83064109950271359 46.009497869018190385759 45.14856171433832799
48.009497869018190385759 336.10633918187897962 48.009497869018190385759 42.71972793707087845
50.009497869018218807469 337.24685058859802211 50.009497869018218807469 40.36835472052246843
52.009497869018190385759 338.26787294789380667 52.009497869018190385759 38.10650229026646230
54.009497869018190385759 339.18228218487399772 54.009497869018190385759 35.95245264211709468
56.009497869018190385759 340.00199331524538593 56.009497869018190385759 33.88767281043461566
58.009497869018190385759 340.73705468872969959 58.009497869018190385759 31.92100626562416821
60.009497869018190385759 341.39696971525449953 60.009497869018190385759 30.04997768293258531
62.009497869018190385759 341.98936347035146355 62.009497869018190385759 28.26742295185509235
64.009497869018190385759 342.52205917519887635 64.009497869018190385759 26.57296028384877928
66.009497869018218807469 343.00090217116729718 66.009497869018218807469 24.98212216760946092
68.009497869018190385759 343.43166609644225673 68.009497869018190385759 23.47826707830759219
70.009497869018190385759 343.81943216864067381 70.009497869018190385759 22.03585450167483017
72.009497869018190385759 344.16836266898019403 72.009497869018190385759 20.69353545339815881
74.009497869018218807469 344.48276027402476984 74.009497869018218807469 19.41445798769208864
76.009497869018190385759 344.76613567810954919 76.009497869018190385759 18.20489731852335780
78.009497869018190385759 345.02158871263145556 78.009497869018190385759 17.05898047133753437
80.009497869018218807469 345.25200182705862062 80.009497869018218807469 15.98343880918777771
82.009497869018190385759 345.45978448400222760 82.009497869018190385759 14.96169294690598228
84.009497869018190385759 345.64709831765424042 84.009497869018190385759 13.96528269628536378
86.009497869018218807469 345.81614187570977492 86.009497869018218807469 13.05288572004251257
88.009497869018190385759 345.96869662423432601 88.009497869018190385759 12.16359403612063694
91.009497869018190385759 346.17006227707196331 91.009497869018190385759 10.93323170189274052
94.009497869018190385759 346.34291389433622044 94.009497869018190385759 9.78883510589196781
97.009497869018190385759 346.49092521914406007 97.009497869018190385759 8.75483886422149205
99.504748934509137825444 346.59772404801236689 99.504748934509137825444 7.44064700444685467
nan nan nan nan

