Time Pressure difference Time.1 Pressure.1 difference.1
(hr) (psi) (hr) (psi)
0.000200000000006639311 0.59946094130953853 0.000200000000006639311 0.48049964277664409
0.000399999999999067768 1.12096698558304819 0.000399999999999067768 1.02425306682002426
0.000600000000019917934 1.60074759818346002 0.000600000000019917934 1.40608100258201474
0.000799999999998135536 2.05072327971884460 0.000799999999998135536 1.76044138299985153
0.001007140329448930061 2.49225120731034444 0.001007140329448930061 2.10368737360597757
0.001267914553963578328 3.01949707403925816 0.001267914553963578328 2.50636665263907998
0.001596209851982166583 3.64646064922423330 0.001596209851982166583 2.97344685342152326
0.002009509145210586212 4.38879747746708393 0.002009509145210586212 3.51231366591796945
0.002529822128153114136 5.26390745926251657 0.002529822128153114136 4.13074548408868214
0.003184857364431081805 6.29102663359530467 0.003184857364431081805 4.83694616218710927
0.004009497869020606231 7.49133064051430786 0.004009497869020606231 5.63961936964813848
0.005047658755856332391 8.88806045965904090 0.005047658755856332391 6.54808987553636612
0.006354625877790454069 10.50668132391526477 0.006354625877790454069 7.57246671961924989
0.007999999999995566213 12.37508303519456554 0.007999999999995566213 8.72383584001955015
0.010071403294347192059 14.52382678956095319 0.010071403294347192059 10.01448895622604596
0.012679145539706837553 16.98644977640066855 0.012679145539706837553 11.45825119526364944
0.015962098519764822413 19.79986129809052287 0.015962098519764822413 13.07098749862394449
0.020095091452077440408 23.00487833228709533 0.020095091452077440408 14.87118642304139549
0.025298221281346400247 26.64688731415336065 0.025298221281346400247 16.88008842050152225
0.031848573644282396344 30.77643431096151261 0.031848573644282396344 19.12046984270522287
0.040094978690177640601 35.44932076299567569 0.040094978690177640601 21.61344792994337638
0.050476587558421215363 40.72571443021480064 0.050476587558421215363 24.37366229842197285
0.063546258777947173257 46.66801630637696263 0.063546258777947173257 27.40472640399556781
0.079999999999998294697 53.33786480048869549 0.079999999999998294697 30.69726155505070153
0.100714032943528764008 60.79308211704493914 0.100714032943528764008 34.22992519589901406
0.126791455396883634421 69.08513261207156120 0.126791455396883634421 37.97502746184921563
0.159620985197506115583 78.25862880228923757 0.159620985197506115583 41.90794357424185534
0.200950914520774404082 88.35308523648237156 0.200950914520774404082 46.00838693066892660
0.252982212813464002465 99.40296301213388119 0.252982212813464002465 50.26999312957163113
0.318485736442795541734 111.44375867960303594 0.318485736442795541734 54.71380678102129025
0.400949786901833249431 124.51814168869601929 0.400949786901833249431 59.35714136683765219
0.504765875584169521062 138.66761063492910466 0.504765875584169521062 64.25044805301862993
0.635462587779429100010 153.95532579638103243 0.635462587779429100010 69.45154409012768326
0.800000000000011368684 170.44572277395371884 0.800000000000011368684 75.04117718193508324
1.007140329435344483500 188.23398568319046831 1.007140329435344483500 81.10287216362691254
1.267914553968893187630 207.41605456649344319 1.267914553968893187630 87.69500099768382029
1.596209851975103788391 228.10454970703716526 1.596209851975103788391 94.86168153327697894
2.009509145207672986544 250.40319066373422174 2.009509145207672986544 102.55336697642178478
2.529822128134725289783 274.38586642090490386 2.529822128134725289783 110.62539285454970184
3.184857364427998049905 300.07021933190634400 3.184857364427998049905 118.82978361283159074
4.009497869018190385759 327.39330842005085742 4.009497869018190385759 126.83902107354394673
5.009497869018204596614 355.22511838727029954 5.009497869018204596614 134.05519459678205862
6.009497869018190385759 378.83543140262867155 6.009497869018190385759 139.35528231853072612
7.009497869018190385759 399.28070079214785437 7.009497869018190385759 143.24650064781457104
8.009497869018204596614 417.24274122749557137 8.009497869018204596614 146.05472591182933684
9.009497869018190385759 433.20062694918772195 9.009497869018190385759 147.99766910837371370
10.009497869018190385759 447.51083294740521978 10.009497869018190385759 149.25798141453589096
11.009497869018204596614 460.43557162394165516 11.009497869018204596614 150.15035950844972490
12.009497869018190385759 472.18095523866321628 12.009497869018190385759 150.61739973099403755
13.009497869018190385759 482.90951143402946855 13.009497869018190385759 150.74094864145538963
14.009497869018204596614 492.75276482260875355 14.009497869018204596614 150.58156416488361629
15.009497869018190385759 501.81894569833798414 15.009497869018190385759 150.14673254108927836
16.009497869018190385759 510.19858199857998216 16.009497869018190385759 149.45250394930465632
17.009497869018190385759 517.95886477657018077 17.009497869018190385759 148.39472597476523674
18.009497869018204596614 525.16124567233475773 18.009497869018204596614 147.17073530224064370
19.009497869018190385759 531.85673766129468731 19.009497869018190385759 145.56256421216102126
20.009497869018190385759 538.08714022641470365 20.009497869018190385759 143.97993516208396159
21.009497869018204596614 543.88949107776659275 21.009497869018204596614 142.29030162077694399
22.009497869018190385759 549.30466354831025910 22.009497869018190385759 140.51926466164408680
23.009497869018190385759 554.37474081324842246 23.009497869018190385759 138.62322271452592304
24.009497869018204596614 559.12799292287922981 24.009497869018204596614 136.72149358298699440
25.009497869018190385759 563.58999737798569640 25.009497869018190385759 134.71688705353486171
26.009497869018190385759 567.78392928583230059 26.009497869018190385759 132.41171445060933820
27.009497869018204596614 571.72872943091067555 27.009497869018204596614 130.05527450831979763
28.009497869018190385759 575.42985871905170825 28.009497869018190385759 127.60329915569153059
29.009497869018190385759 578.89662295336813713 29.009497869018190385759 125.11857947532850233
30.009497869018190385759 582.14742787427303483 30.009497869018190385759 122.62859946873859940
31.009497869018190385759 585.19003620461853643 31.009497869018190385759 120.07102888038278365
32.009497869018190385759 588.05094022625303296 32.009497869018190385759 117.50304269517631894
33.009497869018190385759 590.75139410152837627 33.009497869018190385759 114.97809081552432531
34.009497869018190385759 593.30203205346936102 34.009497869018190385759 112.43214856922784861
35.009497869018190385759 595.70961154474014165 35.009497869018190385759 109.78406787969308311
36.009497869018190385759 597.98326013232122023 36.009497869018190385759 107.32009613163336326
37.009497869018190385759 600.12826293961029478 37.009497869018190385759 104.87309607239824061
38.009497869018190385759 602.14951745723328713 38.009497869018190385759 102.40473218003924671
39.009497869018190385759 604.05152097305881398 39.009497869018190385759 99.88630529656610690
40.009497869018190385759 605.84523282714167181 40.009497869018190385759 97.26840367012984245
41.009497869018190385759 607.53759972358579944 41.009497869018190385759 94.84890670378662492
42.009497869018190385759 609.13497562274312713 42.009497869018190385759 92.36723171092657481
43.009497869018190385759 610.64356550042668914 43.009497869018190385759 89.96759800453612854
44.009497869018190385759 612.06886086139752479 44.009497869018190385759 87.54937375392994170
46.009497869018190385759 614.68908739162429811 46.009497869018190385759 82.88467299796438681
48.009497869018190385759 617.03104058762858131 48.009497869018190385759 78.42576919790623435
50.009497869018218807469 619.12481525966506979 50.009497869018218807469 74.10906911379497330
52.009497869018190385759 620.99922944165575700 52.009497869018190385759 69.95671315974290394
54.009497869018190385759 622.67792102596274617 54.009497869018190385759 66.00226380567764295
56.009497869018190385759 624.18276384739078821 56.009497869018190385759 62.21169784602176378
58.009497869018190385759 625.53220487632472668 58.009497869018190385759 58.60125030853392758
60.009497869018190385759 626.74369067128805000 60.009497869018190385759 55.16637694030907113
62.009497869018190385759 627.83121950527220179 62.009497869018190385759 51.89392571758472172
64.009497869018190385759 628.80915341118588913 64.009497869018190385759 48.78319574497611910
66.009497869018218807469 629.68822338885945555 66.009497869018218807469 45.86270188979050033
68.009497869018190385759 630.47902880391643521 68.009497869018190385759 43.10189329301244499
70.009497869018190385759 631.19089786183292290 70.009497869018190385759 40.45388214486573020
72.009497869018190385759 631.83147176544127888 72.009497869018190385759 37.98962478758168970
74.009497869018218807469 632.40864945828434429 74.009497869018218807469 35.64146764904666753
76.009497869018190385759 632.92887594638034443 76.009497869018190385759 33.42093089818467178
78.009497869018190385759 633.39784196498021629 78.009497869018190385759 31.31723280558980349
80.009497869018218807469 633.82083917504792225 80.009497869018218807469 29.34273094821040218
82.009497869018190385759 634.20229091839212288 82.009497869018190385759 27.46698854431993908
84.009497869018190385759 634.54616556823100382 84.009497869018190385759 25.63775778571790553
86.009497869018218807469 634.85649926436281021 86.009497869018218807469 23.96276035171983665
88.009497869018190385759 635.13656245941513134 88.009497869018190385759 22.33018009616176514
91.009497869018190385759 635.50623373253517912 91.009497869018190385759 20.07145521392249421
94.009497869018190385759 635.82355834333361599 94.009497869018190385759 17.97054803021958591
97.009497869018190385759 636.09528062618983313 97.009497869018190385759 16.07231612386930664
99.504748934509137825444 636.29134414784368801 99.504748934509137825444 13.65969524696959958
nan nan nan nan

