Time Pressure difference Time.1 Pressure.1 difference.1
(hr) (psi) (hr) (psi)
0.000200000000006639311 0.65655245952949448 0.000200000000006639311 0.52626151351727679
0.000399999999999067768 1.22772574611476704 0.000399999999999067768 1.12180097794574074
0.000600000000019917934 1.75319975039140852 0.000600000000019917934 1.53999347901839712
0.000799999999998135536 2.24603025873968676 0.000799999999998135536 1.92810246709507527
0.001007140329448930061 2.72960846514942546 0.001007140329448930061 2.30403855204464270
0.001267914553963578328 3.30706822394775912 0.001267914553963578328 2.74506823860470694
0.001596209851982166583 3.99374261581701751 0.001596209851982166583 3.25663226803309680
0.002009509145210586212 4.80677818960680625 0.002009509145210586212 3.84681972933872895
0.002529822128153114136 5.76523197919228014 0.002529822128153114136 4.52414981590665199
0.003184857364431081805 6.89017202727104738 0.003184857364431081805 5.29760770144302562
0.004009497869020606231 8.20479070151566958 0.004009497869020606231 6.17672597628129427
0.005047658755856332391 9.73454240819799743 0.005047658755856332391 7.17171748273030563
0.006354625877790454069 11.50731764047862349 0.006354625877790454069 8.29365402624965320
0.007999999999995566213 13.55366237187976175 0.007999999999995566213 9.55467734859284157
0.010071403294347192059 15.90704838856675707 0.010071403294347192059 10.96824980919995518
0.012679145539706837553 18.60420689796263716 0.012679145539706837553 12.54951321386018748
0.015962098519764822413 21.68556237409914544 0.015962098519764822413 14.31584345087384413
0.020095091452077440408 25.19581912583824845 0.020095091452077440408 16.28748989190248153
0.025298221281346400247 29.18468610597749091 0.025298221281346400247 18.48771588912071451
0.031848573644282396344 33.70752329295784477 0.031848573644282396344 20.94146697058191009
0.040094978690177640601 38.82544654994764244 0.040094978690177640601 23.67187154231893587
0.050476587558421215363 44.60435389975906162 0.050476587558421215363 26.69496346970025513
0.063546258777947173257 51.11258928793667167 0.063546258777947173257 30.01470034723324076
0.079999999999998294697 58.41766144815429129 0.079999999999998294697 33.62081027457933402
0.100714032943528764008 66.58289946152541461 0.100714032943528764008 37.48991807169891644
0.126791455396883634421 75.66466905131646570 0.126791455396883634421 41.59169674393009331
0.159620985197506115583 85.71183154536440441 0.159620985197506115583 45.89917629559821677
0.200950914520774404082 96.76766478281400907 0.200950914520774404082 50.39013806692310737
0.252982212813464002465 108.86991187043234675 0.252982212813464002465 55.05761152286416404
0.318485736442795541734 122.05744998242236932 0.318485736442795541734 59.92464552207093931
0.400949786901833249431 136.37701232571467358 0.400949786901833249431 65.01020244939361703
0.504765875584169521062 151.87404974301759353 0.504765875584169521062 70.36953834378230965
0.635462587779429100010 168.61773777698877552 0.635462587779429100010 76.06597686061603270
0.800000000000011368684 186.67864875242551648 0.800000000000011368684 82.18795596116699187
1.007140329435344483500 206.16103193873240684 1.007140329435344483500 88.82695522682946887
1.267914553968893187630 227.16996452520709227 1.267914553968893187630 96.04690585460608077
1.596209851975103788391 249.82879253627879734 1.596209851975103788391 103.89612739358906879
2.009509145207672986544 274.25111358408986462 2.009509145207672986544 112.32035430750956095
2.529822128134725289783 300.51785369908634493 2.529822128134725289783 121.16114455498299662
3.184857364427998049905 328.64833545875455911 3.184857364427998049905 130.14690586167270681
4.009497869018190385759 358.57362350767476755 4.009497869018190385759 138.91892784245288794
5.009497869018204596614 389.05608204320077448 5.009497869018204596614 146.82235598695180556
6.009497869018190385759 414.91499629811710292 6.009497869018190385759 152.62721396791462780
7.009497869018190385759 437.30743420092386486 7.009497869018190385759 156.88902451903499013
8.009497869018204596614 456.98014515392372914 8.009497869018204596614 159.96469980819401258
9.009497869018190385759 474.45782951577706399 9.009497869018190385759 162.09268521393309470
10.009497869018190385759 490.13091227572954267 10.009497869018190385759 163.47302726353930780
11.009497869018204596614 504.28657844526946974 11.009497869018204596614 164.45039374734972171
12.009497869018190385759 517.15057002329774605 12.009497869018190385759 164.96191399108872133
13.009497869018190385759 528.90089347536559217 13.009497869018190385759 165.09722946445117486
14.009497869018204596614 539.68159956761905960 14.009497869018204596614 164.92266551392017959
15.009497869018190385759 549.61122624103677481 15.009497869018190385759 164.44642135452633624
16.009497869018190385759 558.78892314130200702 16.009497869018190385759 163.68607575400034193
17.009497869018190385759 567.28828046957676179 17.009497869018190385759 162.52755701998097493
18.009497869018204596614 575.17660240303337105 18.009497869018204596614 161.18699580721590792
19.009497869018190385759 582.50976029570369974 19.009497869018190385759 159.42566556570017156
20.009497869018190385759 589.33353453369238650 20.009497869018190385759 157.69230993942528585
21.009497869018204596614 595.68849022802999116 21.009497869018204596614 155.84175891799378633
22.009497869018190385759 601.61939341005404458 22.009497869018190385759 153.90205177227684885
23.009497869018190385759 607.17233517641489016 23.009497869018190385759 151.82543440162365300
24.009497869018204596614 612.37827796315343676 24.009497869018204596614 149.74258820993813401
25.009497869018190385759 617.26523522350817075 25.009497869018190385759 147.54706677291912342
26.009497869018190385759 621.85858921781630215 26.009497869018190385759 145.02235392209595943
27.009497869018204596614 626.17908461480692495 27.009497869018204596614 142.44149112815978242
28.009497869018190385759 630.23270240658030161 28.009497869018190385759 139.75599431337644774
29.009497869018190385759 634.02963466321273245 29.009497869018190385759 137.03463466345499455
30.009497869018190385759 637.59004005277517990 30.009497869018190385759 134.30751370385655719
31.009497869018190385759 640.92242060505839163 31.009497869018190385759 131.50636496422876576
32.009497869018190385759 644.05579167637222326 32.009497869018190385759 128.69380866614548609
33.009497869018190385759 647.01343163500735045 33.009497869018190385759 125.92838517890761807
34.009497869018190385759 649.80698748713302848 34.009497869018190385759 123.13997224248763018
35.009497869018190385759 652.44386026328686512 35.009497869018190385759 120.23969339204481344
36.009497869018190385759 654.93404681158983749 36.009497869018190385759 117.54105766797940191
37.009497869018190385759 657.28333560052544726 37.009497869018190385759 114.86100998405521523
38.009497869018190385759 659.49709054839843247 38.009497869018190385759 112.15756381623346272
39.009497869018190385759 661.58023725620728328 39.009497869018190385759 109.39928675338192932
40.009497869018190385759 663.54477881067896305 40.009497869018190385759 106.53206116252316349
41.009497869018190385759 665.39832350678454986 41.009497869018190385759 103.88213591367106403
42.009497869018190385759 667.14783044395676370 42.009497869018190385759 101.16411092149100170
43.009497869018190385759 668.80009554808646044 43.009497869018190385759 98.53594067163480474
44.009497869018190385759 670.36113332438776524 44.009497869018190385759 95.88740934954230966
46.009497869018190385759 673.23090523844575728 46.009497869018190385759 90.77845137872290593
48.009497869018190385759 675.79590159597410093 48.009497869018190385759 85.89489007389731512
50.009497869018218807469 678.08908337963316626 50.009497869018218807469 81.16707569606116124
52.009497869018190385759 680.14201319800395140 52.009497869018190385759 76.61925727019462329
54.009497869018190385759 681.98058017129255859 54.009497869018190385759 72.28819369193266198
56.009497869018190385759 683.62874135666606890 56.009497869018190385759 68.13662145040478890
58.009497869018190385759 685.10670057883191930 58.009497869018190385759 64.18232176648953669
60.009497869018190385759 686.43356597331558078 60.009497869018190385759 60.42031760129088269
62.009497869018190385759 687.62466898196464626 62.009497869018190385759 56.83620435735470267
64.009497869018190385759 688.69573945034653661 64.009497869018190385759 53.42921438735480422
66.009497869018218807469 689.65853037827457683 66.009497869018218807469 50.23057826024673744
68.009497869018190385759 690.52465059476560327 68.009497869018190385759 47.20683551139457990
70.009497869018190385759 691.30431670581697290 70.009497869018190385759 44.30663282532913172
72.009497869018190385759 692.00589764786423075 72.009497869018190385759 41.60768429116089351
74.009497869018218807469 692.63804464478766931 74.009497869018218807469 39.03589313943206207
76.009497869018190385759 693.20781651270226575 76.009497869018190385759 36.60387669801178134
78.009497869018190385759 693.72144596164491759 78.009497869018190385759 34.29982640612216471
80.009497869018218807469 694.18472862029057069 80.009497869018218807469 32.13727675280186702
82.009497869018190385759 694.60250910109607503 82.009497869018190385759 30.08289221520755419
84.009497869018190385759 694.97913371758625090 84.009497869018190385759 28.07944900340532612
86.009497869018218807469 695.31902300382580506 86.009497869018218807469 26.24492800426458317
88.009497869018190385759 695.62575888412141012 88.009497869018190385759 24.45686391484384004
91.009497869018190385759 696.03063694515753923 91.009497869018190385759 21.98302237715320828
94.009497869018190385759 696.37818294746068659 94.009497869018190385759 19.68202879500240243
97.009497869018190385759 696.67578354296972520 97.009497869018190385759 17.60301289757114418
99.504748934509137825444 696.89051978097154461 99.504748934509137825444 14.96061860382384801
nan nan nan nan

