Time Pressure difference Time.1 Pressure.1 difference.1
(hr) (psi) (hr) (psi)
0.000200000000006639311 0.20539021798642726 0.000200000000006639311 0.16463112034739838
0.000399999999999067768 0.38407115069337883 0.000399999999999067768 0.35093455831812675
0.000600000000019917934 0.54845591343103450 0.000600000000019917934 0.48175829937479014
0.000799999999998135536 0.70262876598961566 0.000799999999998135536 0.60317097326940317
0.001007140329448930061 0.85390720807961862 0.001007140329448930061 0.72077558096836636
0.001267914553963578328 1.03455474662204550 0.001267914553963578328 0.85874351048609598
0.001596209851982166583 1.24936805054721134 0.001596209851982166583 1.01877679646846619
0.002009509145210586212 1.50371109855143992 0.002009509145210586212 1.20340595986736454
0.002529822128153114136 1.80354552901561238 0.002529822128153114136 1.41529607178415961
0.003184857364431081805 2.15546208700419850 0.003184857364431081805 1.65725797659140239
0.004009497869020606231 2.56671607311465833 0.004009497869020606231 1.93227376776562232
0.005047658755856332391 3.04527042462185493 0.005047658755856332391 2.24353834295380716
0.006354625877790454069 3.59985016324622897 0.006354625877790454069 2.59451531043865113
0.007999999999995566213 4.24001102831869581 0.007999999999995566213 2.98900298816000864
0.010071403294347192059 4.97622404520381156 0.010071403294347192059 3.43121282472320965
0.012679145539706837553 5.81997988854610604 0.012679145539706837553 3.92588165226803287
0.015962098519764822413 6.78392460271394171 0.015962098519764822413 4.47844519406976005
0.020095091452077440408 7.88204309875109477 0.020095091452077440408 5.09523808919536769
0.025298221281346400247 9.12988589741607548 0.025298221281346400247 5.78353784442270502
0.031848573644282396344 10.54477133766974006 0.031848573644282396344 6.55114820394662178
0.040094978690177640601 12.14581837988818158 0.040094978690177640601 7.40530445915597646
0.050476587558421215363 13.95364199409217676 0.050476587558421215363 8.35102250642797017
0.063546258777947173257 15.98962231170871462 0.063546258777947173257 9.38954040555016434
0.079999999999998294697 18.27487818367499273 0.079999999999998294697 10.51764478367010192
0.100714032943528764008 20.82922093441144895 0.100714032943528764008 11.72802315074356194
0.126791455396883634421 23.67028353142986319 0.126791455396883634421 13.01118827090071761
0.159620985197506115583 26.81335133179480579 0.159620985197506115583 14.35870308292839503
0.200950914520774404082 30.27196300204680313 0.200950914520774404082 15.76361689262175858
0.252982212813464002465 34.05792577070788951 0.252982212813464002465 17.22374909782070773
0.318485736442795541734 38.18340163819151201 0.318485736442795541734 18.74631010499567907
0.400949786901833249431 42.66301021854276598 0.400949786901833249431 20.33723194334158890
0.504765875584169521062 47.51096996202564782 0.504765875584169521062 22.01380043628396876
0.635462587779429100010 52.74892114974727519 0.635462587779429100010 23.79582521090321023
0.800000000000011368684 58.39894102011190569 0.800000000000011368684 25.71097243748065964
1.007140329435344483500 64.49364201688871390 1.007140329435344483500 27.78785980054580662
1.267914553968893187630 71.06589558317720901 1.267914553968893187630 30.04648698526914075
1.596209851975103788391 78.15428822714979162 1.596209851975103788391 32.50196986331789617
2.009509145207672986544 85.79435684762088954 2.009509145207672986544 35.13733247159630935
2.529822128134725289783 94.01141764711609028 2.529822128134725289783 37.90300916619298732
3.184857364427998049905 102.81151533439299328 3.184857364427998049905 40.71403735863567874
4.009497869018190385759 112.17308476645180804 4.009497869018190385759 43.45820118083096872
5.009497869018204596614 121.70895461584754571 5.009497869018204596614 45.93064158658619078
6.009497869018190385759 129.79843468498890502 6.009497869018190385759 47.74658337278346920
7.009497869018190385759 136.80349214132823477 7.009497869018190385759 49.07981148792718074
8.009497869018204596614 142.95773363775978737 8.009497869018204596614 50.04197926131202223
9.009497869018190385759 148.42530191638837778 9.009497869018190385759 50.70767989195149994
10.009497869018190385759 153.32833416897159395 10.009497869018190385759 51.13949421287815511
11.009497869018204596614 157.75667088160602702 11.009497869018204596614 51.44524512774991365
12.009497869018190385759 161.78093123740492842 12.009497869018190385759 51.60526471619424171
13.009497869018190385759 165.45680124627028817 13.009497869018190385759 51.64759564370423561
14.009497869018204596614 168.82934450948846461 14.009497869018204596614 51.59298656055826626
15.009497869018190385759 171.93564341580687937 15.009497869018190385759 51.44400243858459021
16.009497869018190385759 174.80671508662149449 16.009497869018190385759 51.20614246811251036
17.009497869018190385759 177.46558084679233502 17.009497869018190385759 50.84372144315417330
18.009497869018204596614 179.93329555556184118 18.009497869018204596614 50.42435181667942601
19.009497869018190385759 182.22733752622755787 19.009497869018190385759 49.87335243041521693
20.009497869018190385759 184.36202830057183633 20.009497869018190385759 49.33110438189868319
21.009497869018204596614 186.35005791863079594 21.009497869018204596614 48.75219393510940336
22.009497869018190385759 188.20543060017598691 22.009497869018190385759 48.14539265410569868
23.009497869018190385759 189.94256508700146924 23.009497869018190385759 47.49576155724174953
24.009497869018204596614 191.57114740098649008 24.009497869018204596614 46.84418188964130536
25.009497869018190385759 193.09994102962343732 25.009497869018190385759 46.15735386851658006
26.009497869018190385759 194.53688634067424346 26.009497869018190385759 45.36754444010424692
27.009497869018204596614 195.88847291767552861 27.009497869018204596614 44.56016954698529986
28.009497869018190385759 197.15657180269482751 28.009497869018190385759 43.72006184776887494
29.009497869018190385759 198.34437139517260107 29.009497869018190385759 42.86873512801614794
30.009497869018190385759 199.45817795924571669 30.009497869018190385759 42.01560608975364630
31.009497869018190385759 200.50065119670438207 31.009497869018190385759 41.13931883822639435
32.009497869018190385759 201.48086802177073196 32.009497869018190385759 40.25946294434032069
33.009497869018190385759 202.40611063873507192 33.009497869018190385759 39.39435167314713482
34.009497869018190385759 203.28002259671714569 34.009497869018190385759 38.52204858062975035
35.009497869018190385759 204.10491917038137899 35.009497869018190385759 37.61475031882631725
36.009497869018190385759 204.88392768761295315 36.009497869018190385759 36.77053235636683581
37.009497869018190385759 205.61885896304880816 37.009497869018190385759 35.93212931632692886
38.009497869018190385759 206.31139099870364362 38.009497869018190385759 35.08640649606455497
39.009497869018190385759 206.96306467718042654 39.009497869018190385759 34.22353085073984147
40.009497869018190385759 207.57763494077443056 40.009497869018190385759 33.32657268604913270
41.009497869018190385759 208.15748190297077258 41.009497869018190385759 32.49759288921841005
42.009497869018190385759 208.70478258851244391 42.009497869018190385759 31.64730935507936849
43.009497869018190385759 209.22166297633668819 43.009497869018190385759 30.82513520480621949
44.009497869018190385759 209.71000459246488390 44.009497869018190385759 29.99659147202013187
46.009497869018190385759 210.60775932697933399 46.009497869018190385759 28.39834905272879695
48.009497869018190385759 211.41017070075542961 48.009497869018190385759 26.87061778557763247
50.009497869018218807469 212.12754994378769879 50.009497869018218807469 25.39160904595762958
52.009497869018190385759 212.76977083076477015 52.009497869018190385759 23.96890869003966884
54.009497869018190385759 213.34493229112541712 54.009497869018190385759 22.61401605421011496
56.009497869018190385759 213.86052884434408838 56.009497869018190385759 21.31527394259746444
58.009497869018190385759 214.32288088097075729 58.009497869018190385759 20.07824487923055656
60.009497869018190385759 214.73796602558653035 60.009497869018190385759 18.90137189011750962
62.009497869018190385759 215.11058043444282362 62.009497869018190385759 17.78014876502612651
64.009497869018190385759 215.44564489698009879 64.009497869018190385759 16.71433535977695328
66.009497869018218807469 215.74683612045706127 66.009497869018218807469 15.71370157664134481
68.009497869018190385759 216.01778571098182624 68.009497869018190385759 14.76777993198451888
70.009497869018190385759 216.26168974360126640 70.009497869018190385759 13.86050549678907018
72.009497869018190385759 216.48116628432654807 72.009497869018190385759 13.01618967751056744
74.009497869018218807469 216.67892170754225845 74.009497869018218807469 12.21165267882551220
76.009497869018190385759 216.85716423249965601 76.009497869018190385759 11.45084159693900006
78.009497869018190385759 217.01784364653792636 78.009497869018190385759 10.73006234337861997
80.009497869018218807469 217.16277300422663643 80.009497869018218807469 10.05354893115222659
82.009497869018190385759 217.29346785241077100 82.009497869018190385759 9.41087296233958348
84.009497869018190385759 217.41128785438806403 84.009497869018190385759 8.78413303924132549
86.009497869018218807469 217.51761589197096214 86.009497869018218807469 8.21023728659390528
88.009497869018190385759 217.61357250351622383 88.009497869018190385759 7.65087471355136106
91.009497869018190385759 217.74023106980007469 91.009497869018190385759 6.87697942869586054
94.009497869018190385759 217.84895436850570150 94.009497869018190385759 6.15715640988940471
97.009497869018190385759 217.94205317622066786 97.009497869018190385759 5.50677497856149323
99.504748934509137825444 218.00922941186280468 99.504748934509137825444 4.68015110087808583
nan nan nan nan

