Time Pressure difference Time.1 Pressure.1 difference.1
(hr) (psi) (hr) (psi)
0.000200000000006639311 0.69623802707263471 0.000200000000006639311 0.55807159439796061
0.000399999999999067768 1.30193610404535187 0.000399999999999067768 1.18960867226483646
0.000600000000019917934 1.85917258790181195 0.000600000000019917934 1.63307898093149229
0.000799999999998135536 2.38179242708344319 0.000799999999998135536 2.04464736701492633
0.001007140329448930061 2.89460070535463965 0.001007140329448930061 2.44330705413005544
0.001267914553963578328 3.50696524278659538 0.001267914553963578328 2.91099495080032566
0.001596209851982166583 4.23514593405834372 0.001596209851982166583 3.45348066599480097
0.002009509145210586212 5.09732575780149055 0.002009509145210586212 4.07934223683852437
0.002529822128153114136 6.11371365768004260 0.002529822128153114136 4.79761380265816850
0.003184857364431081805 7.30665114238711322 0.003184857364431081805 5.61782364946238033
0.004009497869020606231 8.70073245123612971 0.004009497869020606231 6.55008056869702404
0.005047658755856332391 10.32295059193849163 0.005047658755856332391 7.60521472187731185
0.006354625877790454069 12.20288190930925154 0.006354625877790454069 8.79496715402932416
0.007999999999995566213 14.37291874006337444 0.007999999999995566213 10.13221351918646995
0.010071403294347192059 16.86855608543664786 0.010071403294347192059 11.63122991431596454
0.012679145539706837553 19.72874538490205154 0.012679145539706837553 13.30807339751875595
0.015962098519764822413 22.99635458547098921 0.015962098519764822413 15.18117014938901832
0.020095091452077440408 26.71879016525794981 0.020095091452077440408 17.27199352269616028
0.025298221281346400247 30.94876575395280227 0.025298221281346400247 19.60521303194137133
0.031848573644282396344 35.74498758532114806 0.031848573644282396344 22.20728204727668142
0.040094978690177640601 41.17226569453620755 0.040094978690177640601 25.10272698018975390
0.050476587558421215363 47.30048133590568682 0.050476587558421215363 28.30855086924735531
0.063546258777947173257 54.20210953121598862 0.063546258777947173257 31.82895052728869345
0.079999999999998294697 61.94873960567792892 0.079999999999998294697 35.65303316498339115
0.100714032943528764008 70.60752859122524683 0.100714032943528764008 39.75601068048666065
0.126791455396883634421 80.23824925908427019 0.126791455396883634421 44.10572295220582362
0.159620985197506115583 90.89271637896544576 0.159620985197506115583 48.67356977263862206
0.200950914520774404082 102.61682373575187910 0.200950914520774404082 53.43598946651443526
0.252982212813464002465 115.45059583290810679 0.252982212813464002465 58.38559016210410135
0.318485736442795541734 129.43525979047970509 0.318485736442795541734 63.54681391523959633
0.400949786901833249431 144.62037362217887448 0.400949786901833249431 68.93976929946300913
0.504765875584169521062 161.05413546449372575 0.504765875584169521062 74.62305232638632901
0.635462587779429100010 178.80990220253315215 0.635462587779429100010 80.66381427424818185
0.800000000000011368684 197.96251193258271428 0.800000000000011368684 87.15583877112086952
1.007140329435344483500 218.62251531148717731 1.007140329435344483500 94.19613491710443043
1.267914553968893187630 240.90134095992272023 1.267914553968893187630 101.85249825514962652
1.596209851975103788391 264.92979060050777207 1.596209851975103788391 110.17616902819625579
2.009509145207672986544 290.82832829701993660 2.009509145207672986544 119.10960159863155639
2.529822128134725289783 318.68277168513930064 2.529822128134725289783 128.48477683455249121
3.184857364427998049905 348.51361130302711899 3.184857364427998049905 138.01368596147688095
4.009497869018190385759 380.24774497102305304 4.009497869018190385759 147.31593620620665774
5.009497869018204596614 412.57272751134757982 5.009497869018204596614 155.69709012402097414
6.009497869018190385759 439.99469384742002376 6.009497869018190385759 161.85282499248634736
7.009497869018190385759 463.74065132653640831 7.009497869018190385759 166.37224233195652801
8.009497869018204596614 484.60248690766036361 8.009497869018204596614 169.63382800444753684
9.009497869018190385759 503.13661666572335207 9.009497869018190385759 171.89044031169999016
10.009497869018190385759 519.75706497956468866 10.009497869018190385759 173.35421767077340860
11.009497869018204596614 534.76837586985095641 11.009497869018204596614 174.39066144999972607
12.009497869018190385759 548.40993639798284676 12.009497869018190385759 174.93310073286184547
13.009497869018190385759 560.87051269922119445 13.009497869018190385759 175.07659540238722684
14.009497869018204596614 572.30286274402874369 14.009497869018204596614 174.89147986629922116
15.009497869018190385759 582.83268954510799631 15.009497869018190385759 174.38644894435455512
16.009497869018190385759 592.56513588685243121 16.009497869018190385759 173.58014395970343458
17.009497869018190385759 601.57824015861808675 17.009497869018190385759 172.35159811238702332
18.009497869018204596614 609.94337476461635106 18.009497869018204596614 170.93000615823535782
19.009497869018190385759 617.71978822450012103 19.009497869018190385759 169.06221162852617113
20.009497869018190385759 624.95602813753168903 20.009497869018190385759 167.22408265050401610
21.009497869018204596614 631.69511158857903865 21.009497869018204596614 165.26167435630304681
22.009497869018190385759 637.98451050907112858 22.009497869018190385759 163.20472086137525025
23.009497869018190385759 643.87310198983550436 23.009497869018190385759 161.00258154997203519
24.009497869018204596614 649.39372000334401491 24.009497869018204596614 158.79383691403833723
25.009497869018190385759 654.57607128685913267 25.009497869018190385759 156.46560633395452555
26.009497869018190385759 659.44707234126872208 26.009497869018190385759 153.78828623764150052
27.009497869018204596614 664.02872175483241790 27.009497869018204596614 151.05142219317050944
28.009497869018190385759 668.32736204303330396 28.009497869018190385759 148.20359948396227878
29.009497869018190385759 672.35380133956812188 29.009497869018190385759 145.31774619666489912
30.009497869018190385759 676.12941681100244296 30.009497869018190385759 142.42578335509710996
31.009497869018190385759 679.66322439560804014 31.009497869018190385759 139.45531809568268500
32.009497869018190385759 682.98599329413809755 32.009497869018190385759 136.47275574352653393
33.009497869018190385759 686.12240894486467369 33.009497869018190385759 133.54017516321061976
34.009497869018190385759 689.08482236175302660 34.009497869018190385759 130.58321552755847961
35.009497869018190385759 691.88108193349614794 35.009497869018190385759 127.50762819941125770
36.009497869018190385759 694.52178877156927683 36.009497869018190385759 124.64587239446385070
37.009497869018190385759 697.01308123067394718 37.009497869018190385759 121.80382819093873081
38.009497869018190385759 699.36064745323267289 38.009497869018190385759 118.93697117310016154
39.009497869018190385759 701.56971077010314275 39.009497869018190385759 116.01196898555878079
40.009497869018190385759 703.65299979923543106 40.009497869018190385759 112.97143283406485637
41.009497869018190385759 705.61858272193478570 41.009497869018190385759 110.16133182785901568
42.009497869018190385759 707.47383928309295698 42.009497869018190385759 107.27901476298092120
43.009497869018190385759 709.22597619097177812 43.009497869018190385759 104.49198374510584131
44.009497869018190385759 710.88137149988097008 44.009497869018190385759 101.68336092210212485
46.009497869018190385759 713.92460788806545224 46.009497869018190385759 96.26559000925016107
48.009497869018190385759 716.64464644323868470 48.009497869018190385759 91.08683995111060483
50.009497869018218807469 719.07644048741587994 50.009497869018218807469 86.07325100324619882
52.009497869018190385759 721.25346044327034178 52.009497869018190385759 81.25053793233786337
54.009497869018190385759 723.20316030889978265 54.009497869018190385759 76.65768153969530374
56.009497869018190385759 724.95094523506475070 56.009497869018190385759 72.25516590711006870
58.009497869018190385759 726.51824027447707977 58.009497869018190385759 68.06184704823917286
60.009497869018190385759 727.92530856131020300 60.009497869018190385759 64.07244708514410547
62.009497869018190385759 729.18840825234860858 62.009497869018190385759 60.27169072890211510
64.009497869018190385759 730.32421998976303712 64.009497869018190385759 56.65876393144729661
66.009497869018218807469 731.34520718799012684 66.009497869018218807469 53.26678500556388229
68.009497869018190385759 732.26368037620954965 68.009497869018190385759 50.06027095587972298
70.009497869018190385759 733.09047370712289649 70.009497869018190385759 46.98476439589515508
72.009497869018190385759 733.83446198076808287 72.009497869018190385759 44.12267687291718232
74.009497869018218807469 734.50481934760091463 74.009497869018218807469 41.39543280957801130
76.009497869018190385759 735.10903129660891864 76.009497869018190385759 38.81641219301355505
78.009497869018190385759 735.65370727639970028 78.009497869018190385759 36.37309268941905316
80.009497869018218807469 736.14499323466657188 80.009497869018218807469 34.07982688526178805
82.009497869018190385759 736.58802661834158698 82.009497869018190385759 31.90126427911723539
84.009497869018190385759 736.98741645555276136 84.009497869018190385759 29.77672216691975038
86.009497869018218807469 737.34785048125752382 86.009497869018218807469 27.83131283591153959
88.009497869018190385759 737.67312713056355733 88.009497869018190385759 25.93516852051308419
91.009497869018190385759 738.10247820271206365 91.009497869018190385759 23.31179467354528967
94.009497869018190385759 738.47103175764641492 94.009497869018190385759 20.87171664369289559
97.009497869018190385759 738.78662093634113717 97.009497869018190385759 18.66703382563217772
99.504748934509137825444 739.01433698936546079 99.504748934509137825444 15.86491898602740847
nan nan nan nan

