Time Pressure difference Time.1 Pressure.1 difference.1
(hr) (psi) (hr) (psi)
0.000200000000006639311 0.07380123086969928 0.000200000000006639311 0.05915558900618383
0.000399999999999067768 0.13800522702880733 0.000399999999999067768 0.12609851926007265
0.000600000000019917934 0.19707229431759207 0.000600000000019917934 0.17310637197873818
0.000799999999998135536 0.25246999727084496 0.000799999999998135536 0.21673262090358217
0.001007140329448930061 0.30682767476759182 0.001007140329448930061 0.25899054773778585
0.001267914553963578328 0.37173831573537908 0.001267914553963578328 0.30856546478483449
0.001596209851982166583 0.44892546901018437 0.001596209851982166583 0.36606895059544886
0.002009509145210586212 0.54031653032695803 0.002009509145210586212 0.43241027710488356
0.002529822128153114136 0.64805364771408447 0.002529822128153114136 0.50854706308176578
0.003184857364431081805 0.77450502109303399 0.003184857364431081805 0.59548930684301227
0.004009497869020606231 0.92227763983102973 0.004009497869020606231 0.69430854028188449
0.005047658755856332391 1.09423276274548020 0.005047658755856332391 0.80615276051899509
0.006354625877790454069 1.29350548238678065 0.006354625877790454069 0.93226651832710850
0.007999999999995566213 1.52352938644671765 0.007999999999995566213 1.07401463303376565
0.010071403294347192059 1.78806694505628472 0.010071403294347192059 1.23291037091749245
0.012679145539706837553 2.09124701079961772 0.012679145539706837553 1.41065578013698811
0.015962098519764822413 2.43761358605992484 0.015962098519764822413 1.60920403583523575
0.020095091452077440408 2.83219175751734298 0.020095091452077440408 1.83083131340579319
0.025298221281346400247 3.28056916991899694 0.025298221281346400247 2.07815258138578551
0.031848573644282396344 3.78896868404404197 0.031848573644282396344 2.35397189701132836
0.040094978690177640601 4.36426016362083846 0.040094978690177640601 2.66088905990011382
0.050476587558421215363 5.01385102160600304 0.050476587558421215363 3.00070639214021995
0.063546258777947173257 5.74542361030889470 0.063546258777947173257 3.37386875589260171
0.079999999999998294697 6.56656639820186072 0.079999999999998294697 3.77922151548823981
0.100714032943528764008 7.48439803066987608 0.100714032943528764008 4.21413713213158569
0.126791455396883634421 8.50525442146293464 0.126791455396883634421 4.67520663293381755
0.159620985197506115583 9.63462793617033597 0.159620985197506115583 5.15939839589969385
0.200950914520774404082 10.87738331598970021 0.200950914520774404082 5.66421488345052992
0.252982212813464002465 12.23776315828826000 0.252982212813464002465 6.18887255718303475
0.318485736442795541734 13.72013753779084944 0.318485736442795541734 6.73596227501539691
0.400949786901833249431 15.32975960395096315 0.400949786901833249431 7.30761554574307848
0.504765875584169521062 17.07173835923633476 0.504765875584169521062 7.91004354659695075
0.635462587779429100010 18.95384963346851492 0.635462587779429100010 8.55036431307030576
0.800000000000011368684 20.98402626485376743 0.800000000000011368684 9.23851890973881140
1.007140329435344483500 23.17398662301764034 1.007140329435344483500 9.98479030121306899
1.267914553968893187630 25.53554214175180803 1.267914553968893187630 10.79636481504586065
1.596209851975103788391 28.08255780365382392 1.596209851975103788391 11.67867391698880297
2.009509145207672986544 30.82780279948411817 2.009509145207672986544 12.62561776945494607
2.529822128134725289783 33.78037379862475831 2.529822128134725289783 13.61938634446256380
3.184857364427998049905 36.94244279812087228 3.184857364427998049905 14.62945071191654911
4.009497869018190385759 40.30626096692844840 4.009497869018190385759 15.61548923785790599
5.009497869018204596614 43.73270911620284096 5.009497869018204596614 16.50389155314622869
6.009497869018190385759 46.63943754782652462 6.009497869018190385759 17.15639944920355475
7.009497869018190385759 49.15650904061286752 7.009497869018190385759 17.63545768718739026
8.009497869018204596614 51.36786361221199826 8.009497869018204596614 17.98118576847144112
9.009497869018190385759 53.33248136656667526 9.009497869018190385759 18.22038667304019910
10.009497869018190385759 55.09424888783385654 10.009497869018190385759 18.37554707310198054
11.009497869018204596614 56.68544784220420496 11.009497869018204596614 18.48541011369996667
12.009497869018190385759 58.13145325818617692 12.009497869018190385759 18.54290867768335360
13.009497869018190385759 59.45227434611745565 13.009497869018190385759 18.55811911265304559
14.009497869018204596614 60.66410345086704581 14.009497869018204596614 18.53849686582771739
15.009497869018190385759 61.78026509178144465 15.009497869018190385759 18.48496358810158213
16.009497869018190385759 62.81190440400636277 16.009497869018190385759 18.39949525972856392
17.009497869018190385759 63.76729345681351901 17.009497869018190385759 18.26926939991302490
18.009497869018204596614 64.65399772504933651 18.009497869018204596614 18.11858065277294472
19.009497869018190385759 65.47829755179701294 19.009497869018190385759 17.92059443262377272
20.009497869018190385759 66.24533898257834608 20.009497869018190385759 17.72575276095342289
21.009497869018204596614 66.95968182838937821 21.009497869018204596614 17.51773748176812617
22.009497869018190385759 67.62635811396154395 22.009497869018190385759 17.29970041130577840
23.009497869018190385759 68.25054881092256664 23.009497869018190385759 17.06627364429703420
24.009497869018204596614 68.83573432035447581 24.009497869018204596614 16.83214671288806130
25.009497869018190385759 69.38506355640706147 25.009497869018190385759 16.58535427139917928
26.009497869018190385759 69.90138966817448818 26.009497869018190385759 16.30155834119000247
27.009497869018204596614 70.38704450601224494 27.009497869018204596614 16.01145075247607252
28.009497869018190385759 70.84270037656152397 28.009497869018190385759 15.70958154530000250
29.009497869018190385759 71.26950294199421876 29.009497869018190385759 15.40368109684647990
30.009497869018190385759 71.66971818196624611 30.009497869018190385759 15.09713303564029374
31.009497869018190385759 72.04430178593445078 31.009497869018190385759 14.78226371814236373
32.009497869018190385759 72.39651528917865164 32.009497869018190385759 14.46611210881381027
33.009497869018190385759 72.72897534815565734 33.009497869018190385759 14.15525856730032572
34.009497869018190385759 73.04299117034581457 34.009497869018190385759 13.84182084592119999
35.009497869018190385759 73.33939468495059089 35.009497869018190385759 13.51580858913759364
36.009497869018190385759 73.61930960978635596 36.009497869018190385759 13.21246247381316685
37.009497869018190385759 73.88338661045143851 37.009497869018190385759 12.91120578823950460
38.009497869018190385759 74.13222863004266117 38.009497869018190385759 12.60731894434861644
39.009497869018190385759 74.36638934163093495 39.009497869018190385759 12.29726871246923103
40.009497869018190385759 74.58721797871895376 40.009497869018190385759 11.97497188041087490
41.009497869018190385759 74.79556976852509820 41.009497869018190385759 11.67710117375305678
42.009497869018190385759 74.99222696400786958 42.009497869018190385759 11.37157556487597709
43.009497869018190385759 75.17795347624301883 43.009497869018190385759 11.07615027698121857
44.009497869018190385759 75.35342537898739579 44.009497869018190385759 10.77843625774282543
46.009497869018190385759 75.67600843613493566 46.009497869018190385759 10.20415254098051605
48.009497869018190385759 75.96433252298331240 48.009497869018190385759 9.65520503481772607
50.009497869018218807469 76.22210269166608043 50.009497869018218807469 9.12376460634409625
52.009497869018190385759 76.45286680698664838 52.009497869018190385759 8.61255702082781482
54.009497869018190385759 76.65953499274337446 54.009497869018190385759 8.12571424320770141
56.009497869018190385759 76.84480019491685709 56.009497869018190385759 7.65904758615366621
58.009497869018190385759 77.01093346909456727 58.009497869018190385759 7.21455578711335210
60.009497869018190385759 77.16008270749888709 60.009497869018190385759 6.79167939102527463
62.009497869018190385759 77.29397127474895512 62.009497869018190385759 6.38879921726362454
64.009497869018190385759 77.41436731891488421 64.009497869018190385759 6.00582897673341254
66.009497869018218807469 77.52259196192694901 66.009497869018218807469 5.64627921058977122
68.009497869018190385759 77.61995011987821158 68.009497869018190385759 5.30638872132325012
70.009497869018190385759 77.70759021295502578 70.009497869018190385759 4.98038502596488630
72.009497869018190385759 77.78645296996141667 72.009497869018190385759 4.67700374852922085
74.009497869018218807469 77.85751085084569922 74.009497869018218807469 4.38791587781526893
76.009497869018190385759 77.92155731744054492 76.009497869018190385759 4.11453969245943707
78.009497869018190385759 77.97929297129836357 78.009497869018190385759 3.85554782507841987
80.009497869018218807469 78.03136928287466390 80.009497869018218807469 3.61246164983774953
82.009497869018190385759 78.07833082154419913 82.009497869018190385759 3.38153401358642691
84.009497869018190385759 78.12066614428859168 84.009497869018190385759 3.15633254969349375
86.009497869018218807469 78.15887215101329843 86.009497869018218807469 2.95011916060662305
88.009497869018190385759 78.19335147583973367 88.009497869018190385759 2.74912786317438718
91.009497869018190385759 78.23886268948747613 91.009497869018190385759 2.47105023539580060
94.009497869018190385759 78.27792936631053067 94.009497869018190385759 2.21240196423144697
97.009497869018190385759 78.31138181925217623 97.009497869018190385759 1.97870558551701081
99.504748934509137825444 78.33551972087273896 99.504748934509137825444 1.68168141251890546
nan nan nan nan

