Time Pressure difference Time.1 Pressure.1 difference.1
(hr) (psi) (hr) (psi)
0.000200000000006639311 0.32166196850755724 0.000200000000006639311 0.25782907661185778
0.000399999999999067768 0.60149448006895267 0.000399999999999067768 0.54959920658635442
0.000600000000019917934 0.85893773561063713 0.000600000000019917934 0.75448248919034933
0.000799999999998135536 1.10038810131255071 0.000799999999998135536 0.94462708356089586
0.001007140329448930061 1.33730552587384355 0.001007140329448930061 1.12880785900808567
0.001267914553963578328 1.62021794216740700 0.001267914553963578328 1.34487966726975050
0.001596209851982166583 1.95663742153495446 0.001596209851982166583 1.59550806768959785
0.002009509145210586212 2.35496450010428893 0.002009509145210586212 1.88465611341939820
0.002529822128153114136 2.82453570984817981 0.002529822128153114136 2.21649757682807369
0.003184857364431081805 3.37567282778284605 0.003184857364431081805 2.59543452605162006
0.004009497869020606231 4.01973839247109144 0.004009497869020606231 3.02613722273802521
0.005047658755856332391 4.76920317347558242 0.005047658755856332391 3.51360920150731815
0.006354625877790454069 5.63773144210087374 0.006354625877790454069 4.06327482516154870
0.007999999999995566213 6.64028845790927846 0.007999999999995566213 4.68108264586414968
0.010071403294347192059 7.79327291147173185 0.010071403294347192059 5.37362822041397603
0.012679145539706837553 9.11468036782475011 0.012679145539706837553 6.14832990965366566
0.015962098519764822413 10.62431581848759699 0.015962098519764822413 7.01370060901772518
0.020095091452077440408 12.34408105634917341 0.020095091452077440408 7.97966100748562734
0.025298221281346400247 14.29832977832619356 0.025298221281346400247 9.05760842075691386
0.031848573644282396344 16.51418426441837184 0.031848573644282396344 10.25976430584182708
0.040094978690177640601 19.02158675087572703 0.040094978690177640601 11.59745986484766433
0.050476587558421215363 21.85282237718842779 0.050476587558421215363 13.07855050159227872
0.063546258777947173257 25.04137460342178656 0.063546258777947173257 14.70497514360737767
0.079999999999998294697 28.62031769782320367 0.079999999999998294697 16.47170132222232652
0.100714032943528764008 32.62067820914606386 0.100714032943528764008 18.36727693438483300
0.126791455396883634421 37.07007115769693684 0.126791455396883634421 20.37684400391908923
0.159620985197506115583 41.99243496708204049 0.159620985197506115583 22.48718923495904320
0.200950914520774404082 47.40897256591736664 0.200950914520774404082 24.68742713352967044
0.252982212813464002465 53.33817527480354670 0.252982212813464002465 26.97414265489209484
0.318485736442795541734 59.79909002320162159 0.318485736442795541734 29.35862802884069467
0.400949786901833249431 66.81461261344664138 0.400949786901833249431 31.85017341635190746
0.504765875584169521062 74.40701058459609385 0.504765875584169521062 34.47585017479048020
0.635462587779429100010 82.61017481757032499 0.635462587779429100010 37.26668219470265342
0.800000000000011368684 91.45868051285322053 0.800000000000011368684 40.26599751225784019
1.007140329435344483500 101.00360207390707501 1.007140329435344483500 43.51861433170224558
1.267914553968893187630 111.29641952348428902 1.267914553968893187630 47.05585419387912793
1.596209851975103788391 122.39756325743459797 1.596209851975103788391 50.90139009102666989
2.009509145207672986544 134.36268767322320627 2.009509145207672986544 55.02863593856778124
2.529822128134725289783 147.23144051853435599 2.529822128134725289783 59.35996689756324685
3.184857364427998049905 161.01328842199853852 3.184857364427998049905 63.76232291420232201
4.009497869018190385759 175.67445817661266005 4.009497869018190385759 68.05996252726747286
5.009497869018204596614 190.60860011024257687 5.009497869018204596614 71.93205563729770802
6.009497869018190385759 203.27754855750805518 6.009497869018190385759 74.77600514652870345
7.009497869018190385759 214.24818091285982291 7.009497869018190385759 76.86397595736391963
8.009497869018204596614 223.88634895133907321 8.009497869018204596614 78.37082853805476645
9.009497869018190385759 232.44911689956416012 9.009497869018190385759 79.41338342400540284
10.009497869018190385759 240.12776402055888525 10.009497869018190385759 80.08964856389731324
11.009497869018204596614 247.06298965187113481 11.009497869018204596614 80.56848558989986486
12.009497869018190385759 253.36539061586805133 12.009497869018190385759 80.81909253858216857
13.009497869018190385759 259.12217686704025255 13.009497869018190385759 80.88538707590291210
14.009497869018204596614 264.40392258774124912 14.009497869018204596614 80.79986369823024006
15.009497869018190385759 269.26870256983994523 15.009497869018190385759 80.56653941229180305
16.009497869018190385759 273.76509277972581913 16.009497869018190385759 80.19402650938297938
17.009497869018190385759 277.92914695328153130 17.009497869018190385759 79.62643832792279852
18.009497869018204596614 281.79383914125281763 18.009497869018204596614 78.96966284510472178
19.009497869018190385759 285.38654215971911299 19.009497869018190385759 78.10674177237909532
20.009497869018190385759 288.72968499953958599 20.009497869018190385759 77.25752618453284981
21.009497869018204596614 291.84314155392348766 21.009497869018204596614 76.35089355261202115
22.009497869018190385759 294.74884385519084162 22.009497869018190385759 75.40058103795536226
23.009497869018190385759 297.46937311930400938 23.009497869018190385759 74.38319267608709140
24.009497869018204596614 300.01989864154495535 24.009497869018204596614 73.36275265428571402
25.009497869018190385759 302.41414493452890611 25.009497869018190385759 72.28711012628698995
26.009497869018190385759 304.66454742166615688 26.009497869018190385759 71.05018824179038006
27.009497869018204596614 306.78126945073256593 27.009497869018204596614 69.78575705324476530
28.009497869018190385759 308.76724126388137392 28.009497869018190385759 68.47006296159057115
29.009497869018190385759 310.62745621888046799 29.009497869018190385759 67.13679874285918459
30.009497869018190385759 312.37179056668310295 30.009497869018190385759 65.80071191005487208
31.009497869018190385759 314.00440967077094001 31.009497869018190385759 64.42835696020540581
32.009497869018190385759 315.53952890189185609 32.009497869018190385759 63.05041315350925402
33.009497869018190385759 316.98855293252745469 33.009497869018190385759 61.69556092540330638
34.009497869018190385759 318.35718793112988578 34.009497869018190385759 60.32944557373201633
35.009497869018190385759 319.64905985327521876 35.009497869018190385759 58.90852422812799460
36.009497869018190385759 320.86906641246503114 36.009497869018190385759 57.58639304624229283
37.009497869018190385759 322.02004352857136382 37.009497869018190385759 56.27336862421368835
38.009497869018190385759 323.10461912339349055 38.009497869018190385759 54.94888068197227682
39.009497869018190385759 324.12520637578762717 39.009497869018190385759 53.59752967132816082
40.009497869018190385759 325.08768590724673686 40.009497869018190385759 52.19280196933796390
41.009497869018190385759 325.99578521753392124 41.009497869018190385759 50.89453530447087104
42.009497869018190385759 326.85291374878897841 42.009497869018190385759 49.56290482049718094
43.009497869018190385759 327.66240100022901061 43.009497869018190385759 48.27529649023890101
44.009497869018190385759 328.42719363294503410 44.009497869018190385759 46.97771274601118563
46.009497869018190385759 329.83316884428626281 46.009497869018190385759 44.47470258427357237
48.009497869018190385759 331.08982665677626755 48.009497869018190385759 42.08212005741310691
50.009497869018218807469 332.21331550518613085 50.009497869018218807469 39.76584196349974576
52.009497869018190385759 333.21909872479091064 52.009497869018190385759 37.53774852474009549
54.009497869018190385759 334.11986006271172300 54.009497869018190385759 35.41584887133922877
56.009497869018190385759 334.92733669859995871 56.009497869018190385759 33.38188664908484782
58.009497869018190385759 335.65142700680843291 58.009497869018190385759 31.44457333628649565
60.009497869018190385759 336.30149255532529651 60.009497869018190385759 29.60147055333657207
62.009497869018190385759 336.88504461258503397 62.009497869018190385759 27.84552111675277786
64.009497869018190385759 337.40978963527049928 64.009497869018190385759 26.17634893632865101
66.009497869018218807469 337.88148572085145815 66.009497869018218807469 24.60925467257051125
68.009497869018190385759 338.30582033380881057 68.009497869018190385759 23.12784518161642922
70.009497869018190385759 338.68779885269083252 70.009497869018190385759 21.70696115090356315
72.009497869018190385759 339.03152143511482564 72.009497869018190385759 20.38467671528773550
74.009497869018218807469 339.34122653859162710 74.009497869018218807469 19.12468995802504068
76.009497869018190385759 339.62037245903331950 76.009497869018190385759 17.93318243317226290
78.009497869018190385759 339.87201276169662378 78.009497869018190385759 16.80436882251160213
80.009497869018218807469 340.09898687441602760 80.009497869018218807469 15.74488002099094786
82.009497869018190385759 340.30366829767382342 82.009497869018190385759 14.73838409695216178
84.009497869018190385759 340.48818640246537370 84.009497869018190385759 13.75684564111692509
86.009497869018218807469 340.65470692234100625 86.009497869018218807469 12.85806653019113099
88.009497869018190385759 340.80498473432038509 88.009497869018190385759 11.98204785647704540
91.009497869018190385759 341.00334492965299660 91.009497869018190385759 10.77004913917792273
94.009497869018190385759 341.17361667203272191 94.009497869018190385759 9.64273308938611784
97.009497869018190385759 341.31941887258966517 97.009497869018190385759 8.62416962744206650
99.504748934509137825444 341.42462368908678627 99.504748934509137825444 7.32959257154466304
nan nan nan nan

