Time Pressure difference Time.1 Pressure.1 difference.1
(hr) (psi) (hr) (psi)
0.000200000000006639311 0.44628857535355887 0.000200000000006639311 0.35772389200909277
0.000399999999999067768 0.83454104269307061 0.000399999999999067768 0.76253915892176016
0.000600000000019917934 1.19172962884506140 0.000600000000019917934 1.04680362677708638
0.000799999999998135536 1.52672894576048690 0.000799999999998135536 1.31061896225656760
0.001007140329448930061 1.85543905213232407 0.001007140329448930061 1.56615982169736556
0.001267914553963578328 2.24796472062620767 0.001267914553963578328 1.86594776346300839
0.001596209851982166583 2.71472854373139816 0.001596209851982166583 2.21368110690266739
0.002009509145210586212 3.26738581075075585 0.002009509145210586212 2.61485837381349429
0.002529822128153114136 3.91889045457290752 0.002529822128153114136 3.07527044750388567
0.003184857364431081805 4.68356338227013946 0.003184857364431081805 3.60102495930538602
0.004009497869020606231 5.57716950124235922 0.004009497869020606231 4.19860164453479179
0.005047658755856332391 6.61701132943257253 0.005047658755856332391 4.87494263672335748
0.006354625877790454069 7.82204730386722957 0.006354625877790454069 5.63757394573279758
0.007999999999995566213 9.21304091238062206 0.007999999999995566213 6.49474886579852750
0.010071403294347192059 10.81274445076489066 0.010071403294347192059 7.45561837507653369
0.012679145539706837553 12.64612579172221629 0.012679145539706837553 8.53047504780952259
0.015962098519764822413 14.74066328928690339 0.015962098519764822413 9.73113006575835904
0.020095091452077440408 17.12674449593034609 0.020095091452077440408 11.07134784804824079
0.025298221281346400247 19.83815884828374720 0.025298221281346400247 12.56694155347441999
0.031848573644282396344 22.91253704219085918 0.031848573644282396344 14.23486779230435317
0.040094978690177640601 26.39142231019770790 0.040094978690177640601 16.09084799430162960
0.050476587558421215363 30.31960853631554542 0.050476587558421215363 18.14578110718755610
0.063546258777947173257 34.74355220950944556 0.063546258777947173257 20.40235728799205361
0.079999999999998294697 39.70914208723954886 0.079999999999998294697 22.85359425875435591
0.100714032943528764008 45.25942582697538086 0.100714032943528764008 25.48360284619194260
0.126791455396883634421 51.43271777507302289 0.126791455396883634421 28.27176841236393301
0.159620985197506115583 58.26223119891685087 0.159620985197506115583 31.19975822426135892
0.200950914520774404082 65.77738401461695616 0.200950914520774404082 34.25246924803575155
0.252982212813464002465 74.00383192889410111 0.252982212813464002465 37.42516329390873153
0.318485736442795541734 82.96800152569748832 0.318485736442795541734 40.73350771966858019
0.400949786901833249431 92.70165949181667031 0.400949786901833249431 44.19039212095578506
0.504765875584169521062 103.23570083274047704 0.504765875584169521062 47.83337654121363869
0.635462587779429100010 114.61714731182375715 0.635462587779429100010 51.70550494979308098
0.800000000000011368684 126.89397014878551317 0.800000000000011368684 55.86689265228848456
1.007140329435344483500 140.13703231466328702 1.007140329435344483500 60.37972248186393642
1.267914553968893187630 154.41775955531045383 1.267914553968893187630 65.28745138155090899
1.596209851975103788391 169.81999577492547360 1.596209851975103788391 70.62292434707380551
2.009509145207672986544 186.42095843838978908 2.009509145207672986544 76.34925462472281765
2.529822128134725289783 204.27565665017425545 2.529822128134725289783 82.35874195094814354
3.184857364427998049905 223.39722484524037327 3.184857364427998049905 88.46677270130668091
4.009497869018190385759 243.73880452642575278 4.009497869018190385759 94.42951510817846383
5.009497869018204596614 264.45911833477379105 5.009497869018204596614 99.80183476949746080
6.009497869018190385759 282.03659875619621289 6.009497869018190385759 103.74766082018375357
7.009497869018190385759 297.25775750030987865 7.009497869018190385759 106.64460733478414056
8.009497869018204596614 310.63019410781026863 8.009497869018204596614 108.73528375085086850
9.009497869018190385759 322.51057128272861974 9.009497869018190385759 110.18177223979969881
10.009497869018190385759 333.16427865190098601 10.009497869018190385759 111.12005352696574789
11.009497869018204596614 342.78652893257446976 11.009497869018204596614 111.78441398944981700
12.009497869018190385759 351.53076923110700136 12.009497869018190385759 112.13211756976444633
13.009497869018190385759 359.51799864020080122 13.009497869018190385759 112.22409765293021167
14.009497869018204596614 366.84613501892243903 14.009497869018204596614 112.10543859429779445
15.009497869018190385759 373.59575399841423859 15.009497869018190385759 111.78171377333127623
16.009497869018190385759 379.83425210347246548 16.009497869018190385759 111.26487227816988934
17.009497869018190385759 385.61165194167415393 17.009497869018190385759 110.47737439004009730
18.009497869018204596614 390.97370322411910593 18.009497869018204596614 109.56613394742883827
19.009497869018190385759 395.95838425190459020 19.009497869018190385759 108.36887765388526361
20.009497869018190385759 400.59681403615780937 20.009497869018190385759 107.19063697897307463
21.009497869018204596614 404.91656652827913376 21.009497869018204596614 105.93273326239027199
22.009497869018190385759 408.94807123631454715 22.009497869018190385759 104.61422607214153402
23.009497869018190385759 412.72265837548451373 23.009497869018190385759 103.20265477353207473
24.009497869018204596614 416.26137452214351242 24.009497869018204596614 101.78684946189855509
25.009497869018190385759 419.58326169487668267 25.009497869018190385759 100.29445366006484619
26.009497869018190385759 422.70557337075325677 26.009497869018190385759 98.57829147832821093
27.009497869018204596614 425.64241064484752997 27.009497869018204596614 96.82396162582229238
28.009497869018190385759 428.39783906958427906 28.009497869018190385759 94.99850726921982869
29.009497869018190385759 430.97878665866318215 29.009497869018190385759 93.14867531206219553
30.009497869018190385759 433.39895617585250420 30.009497869018190385759 91.29492713061725340
31.009497869018190385759 435.66412683758477442 31.009497869018190385759 89.39085889933259921
32.009497869018190385759 437.79402170154259011 32.009497869018190385759 87.47903643160049114
33.009497869018190385759 439.80446413365825720 33.009497869018190385759 85.59925227961801397
34.009497869018190385759 441.70337113388364969 34.009497869018190385759 83.70384115316498708
35.009497869018190385759 443.49577351937108460 35.009497869018190385759 81.73238967582261694
36.009497869018190385759 445.18846660257594294 36.009497869018190385759 79.89800420485133259
37.009497869018190385759 446.78538506886201276 37.009497869018190385759 78.07625387039172438
38.009497869018190385759 448.29017501752213093 38.009497869018190385759 76.23859852195721487
39.009497869018190385759 449.70618460363613167 39.009497869018190385759 74.36367211974318536
40.009497869018190385759 451.04157287130982468 40.009497869018190385759 72.41468844663556581
41.009497869018190385759 452.30151152476020116 41.009497869018190385759 70.61341370165763465
42.009497869018190385759 453.49073098046261521 42.009497869018190385759 68.76584846307076759
43.009497869018190385759 454.61385073841302074 43.009497869018190385759 66.97936158061284573
44.009497869018190385759 455.67495913142374775 44.009497869018190385759 65.17903435106747168
46.009497869018190385759 457.62567365625000093 46.009497869018190385759 61.70624319592936047
48.009497869018190385759 459.36921837011601610 48.009497869018190385759 58.38666440866190754
50.009497869018218807469 460.92799835243357620 50.009497869018218807469 55.17295389308080900
52.009497869018190385759 462.32346814413631364 52.009497869018190385759 52.08159481462858054
54.009497869018190385759 463.57322575800475306 54.009497869018190385759 49.13757386694468465
56.009497869018190385759 464.69355589567652487 56.009497869018190385759 46.31556134645754952
58.009497869018190385759 465.69819201593981006 58.009497869018190385759 43.62764395792130756
60.009497869018190385759 466.60012278779987582 60.009497869018190385759 41.07043858157736338
62.009497869018190385759 467.40976968975542150 62.009497869018190385759 38.63415375722625811
64.009497869018190385759 468.13782501343808917 64.009497869018190385759 36.31826768005771555
66.009497869018218807469 468.79227780750164811 66.009497869018218807469 34.14400918856644296
68.009497869018190385759 469.38101912115030245 68.009497869018190385759 32.08863368271890693
70.009497869018190385759 469.91099364626580837 70.009497869018190385759 30.11723397776879452
72.009497869018190385759 470.38789012967231429 72.009497869018190385759 28.28263587553990988
74.009497869018218807469 470.81758920181215444 74.009497869018218807469 26.53447243093950547
76.009497869018190385759 471.20488906112638006 76.009497869018190385759 24.88132021572168995
78.009497869018190385759 471.55402636417221629 78.009497869018190385759 23.31515241391761251
80.009497869018218807469 471.86894066342131282 80.009497869018218807469 21.84516903345280525
82.009497869018190385759 472.15292506235692827 82.009497869018190385759 20.44871040291414843
84.009497869018190385759 472.40893394800929173 84.009497869018190385759 19.08687890899555839
86.009497869018218807469 472.63997215848610267 86.009497869018218807469 17.83987152781929808
88.009497869018190385759 472.84847449069121694 88.009497869018190385759 16.62444302164889010
91.009497869018190385759 473.12368852793849783 91.009497869018190385759 14.94286038574252906
94.009497869018190385759 473.35993135665142972 94.009497869018190385759 13.37877036860714597
97.009497869018190385759 473.56222402019471929 97.009497869018190385759 11.96556868223022541
99.504748934509137825444 473.70819001018327299 99.504748934509137825444 10.16941307004356965
nan nan nan nan

