Time Pressure difference Time.1 Pressure.1 difference.1
(hr) (psi) (hr) (psi)
0.000200000000006639311 0.22558112077153364 0.000200000000006639311 0.18081519658493925
0.000399999999999067768 0.42182729771069405 0.000399999999999067768 0.38543320981380702
0.000600000000019917934 0.60237191848018701 0.000600000000019917934 0.52911758982180346
0.000799999999998135536 0.77170074637503550 0.000799999999998135536 0.66246574691283611
0.001007140329448930061 0.93785062853490320 0.001007140329448930061 0.79163148553813800
0.001267914553963578328 1.13625673866285681 0.001267914553963578328 0.94316236405930542
0.001596209851982166583 1.37218728263490330 0.001596209851982166583 1.11892773578231530
0.002009509145210586212 1.65153354552768294 0.002009509145210586212 1.32170688473568188
0.002529822128153114136 1.98084322508833388 0.002529822128153114136 1.55442687206124641
0.003184857364431081805 2.36735497013342444 0.003184857364431081805 1.82017486242581139
0.004009497869020606231 2.81903731420050585 0.004009497869020606231 2.12222610425783609
0.005047658755856332391 3.34463599178807103 0.005047658755856332391 2.46408956988824901
0.006354625877790454069 3.95373373861619726 0.006354625877790454069 2.84956935790550148
0.007999999999995566213 4.65682567178053297 0.007999999999995566213 3.28283718021641624
0.010071403294347192059 5.46541217168147320 0.010071403294347192059 3.76851849223837254
0.012679145539706837553 6.39211350470826556 0.012679145539706837553 4.31181578079607686
0.015962098519764822413 7.45081888569260098 0.015962098519764822413 4.91869912840204204
0.020095091452077440408 8.65688801354357551 0.020095091452077440408 5.59612590135355692
0.025298221281346400247 10.02740010428070683 0.025298221281346400247 6.35208902234900474
0.031848573644282396344 11.58137597764405236 0.031848573644282396344 7.19515938331764549
0.040094978690177640601 13.33981408502973132 0.040094978690177640601 8.13328354158148059
0.050476587558421215363 15.32535595283344421 0.050476587558421215363 9.17197048163614426
0.063546258777947173257 17.56148348811397852 0.063546258777947173257 10.31257997084153821
0.079999999999998294697 20.07139163223964928 0.079999999999998294697 11.55158274545461872
0.100714032943528764008 22.87683926355698105 0.100714032943528764008 12.88094746047767636
0.126791455396883634421 25.99719275994330658 0.126791455396883634421 14.29025423651468607
0.159620985197506115583 29.44924010678480286 0.159620985197506115583 15.77023660633491353
0.200950914520774404082 33.24785089038361008 0.200950914520774404082 17.31326058715067617
0.252982212813464002465 37.40599304986223217 0.252982212813464002465 18.91693121252172816
0.318485736442795541734 41.93702417211542155 0.318485736442795541734 20.58916770853762657
0.400949786901833249431 46.85700105358596090 0.400949786901833249431 22.33648525302601229
0.504765875584169521062 52.18153989049596930 0.504765875584169521062 24.17786895374916867
0.635462587779429100010 57.93440831362074306 0.635462587779429100010 26.13507582485640768
0.800000000000011368684 64.13985386615679829 0.800000000000011368684 28.23849176184316079
1.007140329435344483500 70.83369496092184647 1.007140329435344483500 30.51954771314183290
1.267914553968893187630 78.05203447101496295 1.267914553968893187630 33.00020943466847712
1.596209851975103788391 85.83725215456450996 1.596209851975103788391 35.69707876513558631
2.009509145207672986544 94.22837836823447333 2.009509145207672986544 38.59151091795662580
2.529822128134725289783 103.25321802598512022 2.529822128134725289783 41.62906769439500465
3.184857364427998049905 112.91841006218078292 3.184857364427998049905 44.71643425151851403
4.009497869018190385759 123.20026937061147976 4.009497869018190385759 47.73036333081095961
5.009497869018204596614 133.67356371367662859 5.009497869018204596614 50.44585720018280028
6.009497869018190385759 142.55828080656411316 6.009497869018190385759 52.44031529756557575
7.009497869018190385759 150.25197102979782926 7.009497869018190385759 53.90460651555391536
8.009497869018204596614 157.01120575808195667 8.009497869018204596614 54.96136027344100228
9.009497869018190385759 163.01626379969434311 9.009497869018190385759 55.69250266099080449
10.009497869018190385759 168.40128905337897436 10.009497869018190385759 56.16676652533058700
11.009497869018204596614 173.26495378183170715 11.009497869018204596614 56.50257430979991113
12.009497869018190385759 177.68481939294645144 12.009497869018190385759 56.67832463744723981
13.009497869018190385759 181.72204611454770884 13.009497869018190385759 56.72481691037346252
14.009497869018204596614 185.42612752906529749 14.009497869018204596614 56.66483947668094601
15.009497869018190385759 188.83779141261499035 15.009497869018190385759 56.50120945797087302
16.009497869018190385759 191.99110402734021363 16.009497869018190385759 56.23996664294391223
17.009497869018190385759 194.91134981139225602 17.009497869018190385759 55.84191778841339726
18.009497869018204596614 197.62165342373572230 18.009497869018204596614 55.38132199526825161
19.009497869018190385759 200.14121138473805672 19.009497869018190385759 54.77615656764248087
20.009497869018190385759 202.48575311656026088 20.009497869018190385759 54.18060277876330133
21.009497869018204596614 204.66921615469959761 21.009497869018204596614 53.54478249144219859
22.009497869018190385759 206.70698140493902883 22.009497869018190385759 52.87832955908557864
23.009497869018190385759 208.61488504470671046 23.009497869018190385759 52.16483642219093753
24.009497869018204596614 210.40356528108347334 24.009497869018204596614 51.44920316014842143
25.009497869018190385759 212.08264709694233829 25.009497869018190385759 50.69485645220126457
26.009497869018190385759 213.66085143857105777 26.009497869018190385759 49.82740474099585271
27.009497869018204596614 215.14530584856569817 27.009497869018204596614 48.94066079058724483
28.009497869018190385759 216.53806530194276547 28.009497869018190385759 48.01796623280377929
29.009497869018190385759 217.84263163402005148 29.009497869018190385759 47.08294976771942686
30.009497869018190385759 219.06593104676477424 30.009497869018190385759 46.14595380705146255
31.009497869018190385759 220.21088470417700478 31.009497869018190385759 45.18352306300118926
32.009497869018190385759 221.28746182730077408 32.009497869018190385759 44.21717286090259336
33.009497869018190385759 222.30366049813613927 33.009497869018190385759 43.26701675288023807
34.009497869018190385759 223.26348244520795561 34.009497869018190385759 42.30896183092895058
35.009497869018190385759 224.16947054645277149 35.009497869018190385759 41.31247153660925164
36.009497869018190385759 225.02505956198845638 36.009497869018190385759 40.38526265580628660
37.009497869018190385759 225.83223831873834797 37.009497869018190385759 39.46444033386414674
38.009497869018190385759 226.59284977484739443 38.009497869018190385759 38.53557866008445387
39.009497869018190385759 227.30858628951341416 39.009497869018190385759 37.58787795132104748
40.009497869018190385759 227.98357193495226625 40.009497869018190385759 36.60274423823701540
41.009497869018190385759 228.62042080190687443 41.009497869018190385759 35.69227151222632699
42.009497869018190385759 229.22152392772213148 42.009497869018190385759 34.75840078320581483
43.009497869018190385759 229.78921628587488613 43.009497869018190385759 33.85540273341428730
44.009497869018190385759 230.32556436596146909 44.009497869018190385759 32.94540893876109067
46.009497869018190385759 231.31157295573322585 46.009497869018190385759 31.19005116299704738
48.009497869018190385759 232.19286544760936408 48.009497869018190385759 29.51213614415983955
50.009497869018218807469 232.98076671792273373 50.009497869018218807469 27.88773332505176938
52.009497869018190385759 233.68612118361960484 52.009497869018190385759 26.32517429007747012
54.009497869018190385759 234.31782394008354231 54.009497869018190385759 24.83708881886127529
56.009497869018190385759 234.88410625616100447 56.009497869018190385759 23.41067375390365868
58.009497869018190385759 235.39190984893059522 58.009497869018190385759 22.05203844362949184
60.009497869018190385759 235.84779997386453942 60.009497869018190385759 20.75947285558669009
62.009497869018190385759 236.25704427376095396 62.009497869018190385759 19.52802779616428808
64.009497869018190385759 236.62504727668320470 64.009497869018190385759 18.35743951378892547
66.009497869018218807469 236.95584712890880041 66.009497869018218807469 17.25843834180269809
68.009497869018190385759 237.25343244189187430 68.009497869018190385759 16.21952778970502962
70.009497869018190385759 237.52131348110785325 70.009497869018190385759 15.22306366427002899
72.009497869018190385759 237.76236568176884134 72.009497869018190385759 14.29574730682516481
74.009497869018218807469 237.97956146862267701 74.009497869018218807469 13.41212023030327494
76.009497869018190385759 238.17532614010130487 76.009497869018190385759 12.57651755053639242
78.009497869018190385759 238.35180115755352404 78.009497869018190385759 11.78488203137177237
80.009497869018218807469 238.51097780803198134 80.009497869018218807469 11.04186391082481933
82.009497869018190385759 238.65452062434266622 82.009497869018190385759 10.33600962643398447
84.009497869018190385759 238.78392293159907922 84.009497869018190385759 9.64765798208199854
86.009497869018218807469 238.90070355592746409 86.009497869018218807469 9.01734535883533894
88.009497869018190385759 239.00609319030257893 88.009497869018190385759 8.40299460064623815
91.009497869018190385759 239.14520293767870385 91.009497869018190385759 7.55302147422867343
94.009497869018190385759 239.26461428947746413 94.009497869018190385759 6.76243619255649886
97.009497869018190385759 239.36686518337455709 97.009497869018190385759 6.04811895950482636
99.504748934509137825444 239.44064518455439838 99.504748934509137825444 5.14023375147288064
nan nan nan nan

