Time Pressure difference Time.1 Pressure.1 difference.1
(hr) (psi) (hr) (psi)
0.000200000000006639311 0.59597975117417534 0.000200000000006639311 0.47770928480465424
0.000399999999999067768 1.11445730506282126 0.000399999999999067768 1.01830502345869989
0.000600000000019917934 1.59145173524395100 0.000600000000019917934 1.39791560767735734
0.000799999999998135536 2.03881431758342702 0.000799999999998135536 1.75021814616477678
0.001007140329448930061 2.47777820378357161 0.001007140329448930061 2.09147083833532754
0.001267914553963578328 3.00196224782532539 0.001267914553963578328 2.49181167788507851
0.001596209851982166583 3.62528491955394205 0.001596209851982166583 2.95617945009154948
0.002009509145210586212 4.36331084867807650 0.002009509145210586212 3.49191695473377672
0.002529822128153114136 5.23333889097411653 0.002529822128153114136 4.10675741507539183
0.003184857364431081805 6.25449337788336912 0.003184857364431081805 4.80885704393979729
0.004009497869020606231 7.44782697825812612 0.004009497869020606231 5.60686896680465274
0.005047658755856332391 8.83644570669934737 0.005047658755856332391 6.51006380192697964
0.006354625877790454069 10.44566691436871864 0.006354625877790454069 7.52849188384910217
0.007999999999995566213 12.30321844149424848 0.007999999999995566213 8.67317477242361967
0.010071403294347192059 14.43948400913377128 0.010071403294347192059 9.95633280665446563
0.012679145539706837553 16.88780604947615771 0.012679145539706837553 11.39171082827605552
0.015962098519764822413 19.68487952516316497 0.015962098519764822413 12.99508164787699904
0.020095091452077440408 22.87128438146080356 0.020095091452077440408 14.78482645542791474
0.025298221281346400247 26.49214348538359687 0.025298221281346400247 16.78206235534181445
0.031848573644282396344 30.59770937303490967 0.031848573644282396344 19.00943343246883899
0.040094978690177640601 35.24345943452298968 0.040094978690177640601 21.48793429504242880
0.050476587558421215363 40.48921202353526638 0.050476587558421215363 24.23211954407573643
0.063546258777947173257 46.39700575872087995 0.063546258777947173257 27.24558165135912446
0.079999999999998294697 53.02812110246031096 0.079999999999998294697 30.51899638922578717
0.100714032943528764008 60.44004447408880765 0.100714032943528764008 34.03114514249657674
0.126791455396883634421 68.68394136577613551 0.126791455396883634421 37.75449884708818615
0.159620985197506115583 77.80416522039442384 0.159620985197506115583 41.66457572537866128
0.200950914520774404082 87.84000111780360953 0.200950914520774404082 45.74120698333635460
0.252982212813464002465 98.82571003296934009 0.252982212813464002465 49.97806517876110632
0.318485736442795541734 110.79658238065063358 0.318485736442795541734 54.39607271144509326
0.400949786901833249431 123.79503982058511724 0.400949786901833249431 59.01244252034033622
0.504765875584169521062 137.86233995760662197 0.504765875584169521062 63.87733279138669218
0.635462587779429100010 153.06127628536836482 0.635462587779429100010 69.04822501875644036
0.800000000000011368684 169.45591021429078182 0.800000000000011368684 74.60539798807947420
1.007140329435344483500 187.14087310663302333 1.007140329435344483500 80.63189148904137937
1.267914553968893187630 206.21154786169384465 1.267914553968893187630 87.18573850640807166
1.596209851975103788391 226.77990075403462811 1.596209851975103788391 94.31080068813599837
2.009509145207672986544 248.94904902224908483 2.009509145207672986544 101.95781896842861158
2.529822128134725289783 272.79245256247924090 2.529822128134725289783 109.98296897037693043
3.184857364427998049905 298.32765127539119021 3.184857364427998049905 118.13971518302420805
4.009497869018190385759 325.49206969519570976 4.009497869018190385759 126.10244139251291529
5.009497869018204596614 353.16225474971355425 5.009497869018204596614 133.27670914616197706
6.009497869018190385759 376.63545793339153533 6.009497869018190385759 138.54601819356830106
7.009497869018190385759 396.96199753551519507 7.009497869018190385759 142.41463943615477206
8.009497869018204596614 414.81972879295727807 8.009497869018204596614 145.20655677180710086
9.009497869018190385759 430.68494386585916800 9.009497869018190385759 147.13821690681521659
10.009497869018190385759 444.91204762250742988 10.009497869018190385759 148.39121032618200502
11.009497869018204596614 457.76172974459240095 11.009497869018204596614 149.27840620119974346
12.009497869018190385759 469.43890555667326225 12.009497869018190385759 149.74273422732974836
13.009497869018190385759 480.10515887053338702 13.009497869018190385759 149.86556566444346572
14.009497869018204596614 489.89125050888861779 14.009497869018204596614 149.70710676555214036
15.009497869018190385759 498.90478225061247031 15.009497869018190385759 149.27480029636748782
16.009497869018190385759 507.23575631914576434 16.009497869018190385759 148.58460322950614341
17.009497869018190385759 514.95097357577708408 17.009497869018190385759 147.53296798420328173
18.009497869018204596614 522.11152879851169928 18.009497869018204596614 146.31608527144945242
19.009497869018190385759 528.76813872017214635 19.009497869018190385759 144.71725315401840817
20.009497869018190385759 534.96236008572714127 20.009497869018190385759 143.14381474883143142
21.009497869018204596614 540.73101551982369983 21.009497869018204596614 141.46399324899542194
22.009497869018190385759 546.11474099576480512 22.009497869018190385759 139.70324105733720899
23.009497869018190385759 551.15537530329913807 23.009497869018190385759 137.81820980677605348
24.009497869018204596614 555.88102432286245858 24.009497869018204596614 135.92752439841680712
25.009497869018190385759 560.31711702155132571 25.009497869018190385759 133.93455902186508411
26.009497869018190385759 564.48669392412591606 26.009497869018190385759 131.64277301942112786
27.009497869018204596614 568.40858582213650152 27.009497869018204596614 129.30001739735394040
28.009497869018190385759 572.08822190883654457 28.009497869018190385759 126.86228115827171337
29.009497869018190385759 575.53485394667029595 29.009497869018190385759 124.39199074434515069
30.009497869018190385759 578.76678079021803569 30.009497869018190385759 121.91647055196312976
31.009497869018190385759 581.79172008264049509 31.009497869018190385759 119.37375228990437392
32.009497869018190385759 584.63601025978221060 32.009497869018190385759 116.82067891645870361
33.009497869018190385759 587.32078205680409155 33.009497869018190385759 114.31038993970828699
34.009497869018190385759 589.85660794166051346 34.009497869018190385759 111.77923249159006502
35.009497869018190385759 592.25020613507274447 35.009497869018190385759 109.14652973869603159
36.009497869018190385759 594.51065118846327096 36.009497869018190385759 106.69686676966104244
37.009497869018190385759 596.64319753345694153 37.009497869018190385759 104.26407693144354027
38.009497869018190385759 598.65271421996715162 38.009497869018190385759 101.81004732417373759
39.009497869018190385759 600.54367241920829201 39.009497869018190385759 99.30624545163831840
40.009497869018190385759 602.32696782814548442 40.009497869018190385759 96.70354650595952251
41.009497869018190385759 604.00950680997618747 41.009497869018190385759 94.29810004464732742
42.009497869018190385759 605.59760642632761574 42.009497869018190385759 91.83083663711165912
43.009497869018190385759 607.09743561947186663 43.009497869018190385759 89.44513808581059777
44.009497869018190385759 608.51445400389820861 44.009497869018190385759 87.04095694931942262
46.009497869018190385759 611.11946435218408169 46.009497869018190385759 82.40334504791813686
48.009497869018190385759 613.44781735541232592 48.009497869018190385759 77.97033499815069035
50.009497869018218807469 615.52943305722806144 50.009497869018218807469 73.67870285877874892
52.009497869018190385759 617.39296213943941893 52.009497869018190385759 69.55046047008121946
54.009497869018190385759 619.06190522441818302 54.009497869018190385759 65.61897539797917034
56.009497869018190385759 620.55800912121549118 56.009497869018190385759 61.85042201648621329
58.009497869018190385759 621.89961367495232025 58.009497869018190385759 58.26094107329273442
60.009497869018190385759 623.10406412848158197 60.009497869018190385759 54.84601470488335195
62.009497869018190385759 624.18527746401036893 62.009497869018190385759 51.59256726394021086
64.009497869018190385759 625.15753231123710520 64.009497869018190385759 48.49990192531888766
66.009497869018218807469 626.03149735291958677 66.009497869018218807469 45.59636796476267762
68.009497869018190385759 626.81771040203534540 68.009497869018190385759 42.85159193823304236
70.009497869018190385759 627.52544549329718393 70.009497869018190385759 40.21895832288625883
72.009497869018190385759 628.16229945553743619 72.009497869018190385759 37.76901140321710670
74.009497869018218807469 628.73612536154632835 74.009497869018218807469 35.43449048499878273
76.009497869018190385759 629.25333078989729074 76.009497869018190385759 33.22684883721960603
78.009497869018190385759 629.71957342859809614 78.009497869018190385759 31.13536734214270396
80.009497869018218807469 630.14011420887459280 80.009497869018218807469 29.17233181378409057
82.009497869018190385759 630.51935078530038936 82.009497869018190385759 27.30748222292435301
84.009497869018190385759 630.86122848595312007 84.009497869018190385759 25.48887417488330698
86.009497869018218807469 631.16976001195655499 86.009497869018218807469 23.82360378754028218
88.009497869018190385759 631.44819682376237324 88.009497869018190385759 22.20050425355920254
91.009497869018190385759 631.81572134152156650 91.009497869018190385759 19.95489624055476696
94.009497869018190385759 632.13120318454548396 94.009497869018190385759 17.86618944700112266
97.009497869018190385759 632.40134752150811437 97.009497869018190385759 15.97898095474114655
99.504748934509137825444 632.59627246289687719 99.504748934509137825444 13.58037065203946270
nan nan nan nan

