Time Pressure difference Time.1 Pressure.1 difference.1
(hr) (psi) (hr) (psi)
0.000200000000006639311 0.34742277550924477 0.000200000000006639311 0.27847772560458234
0.000399999999999067768 0.64966611591863066 0.000399999999999067768 0.59361472746015331
0.000600000000019917934 0.92772712136300417 0.000600000000019917934 0.81490641148481457
0.000799999999998135536 1.18851442111463812 0.000799999999998135536 1.02027903614044813
0.001007140329448930061 1.44440575197196508 0.001007140329448930061 1.21921022001089763
0.001267914553963578328 1.74997565615051087 0.001267914553963578328 1.45258648044936223
0.001596209851982166583 2.11333782109511326 0.001596209851982166583 1.72328685233140555
0.002009509145210586212 2.54356555314294397 0.002009509145210586212 2.03559177618242337
0.002529822128153114136 3.05074311518234120 0.002529822128153114136 2.39400928752642583
0.003184857364431081805 3.64601892005116968 0.003184857364431081805 2.80329400108172822
0.004009497869020606231 4.34166549316682815 0.004009497869020606231 3.26849020377981470
0.005047658755856332391 5.15115234537730693 0.005047658755856332391 3.79500214621677889
0.006354625877790454069 6.08923807274531637 0.006354625877790454069 4.38868860986063325
0.007999999999995566213 7.17208645129162381 0.007999999999995566213 5.05597454607404906
0.010071403294347192059 8.41740948663288790 0.010071403294347192059 5.80398372724366673
0.012679145539706837553 9.84464394706612467 0.012679145539706837553 6.64072862536185937
0.015962098519764822413 11.47518093815002338 0.015962098519764822413 7.57540390454511936
0.020095091452077440408 13.33267629246371833 0.020095091452077440408 8.61872476782538577
0.025298221281346400247 15.44343411122244625 0.025298221281346400247 9.78300130293874481
0.031848573644282396344 17.83674880507525629 0.031848573644282396344 11.08143374159106465
0.040094978690177640601 20.54496058157356941 0.040094978690177640601 12.52626076311468672
0.050476587558421215363 23.60294018661693727 0.050476587558421215363 14.12596688375442966
0.063546258777947173257 27.04685265607677636 0.063546258777947173257 15.88264631311705877
0.079999999999998294697 30.91242106323328898 0.079999999999998294697 17.79086354932671199
0.100714032943528764008 35.23315676702139854 0.100714032943528764008 19.83824932956283860
0.126791455396883634421 40.03888638028305991 0.126791455396883634421 22.00875575315070520
0.159620985197506115583 45.35546547310375587 0.159620985197506115583 24.28811131654667221
0.200950914520774404082 51.20579504414018857 0.200950914520774404082 26.66455874379070323
0.252982212813464002465 57.60984732062114944 0.252982212813464002465 29.13440949088994714
0.318485736442795541734 64.58819463544938344 0.318485736442795541734 31.70986014370455663
0.400949786901833249431 72.16556643746726252 0.400949786901833249431 34.40094488043204279
0.504765875584169521062 80.36601359678236633 0.504765875584169521062 37.23690311086677696
0.635462587779429100010 89.22614119906404540 0.635462587779429100010 40.25124332284983808
0.800000000000011368684 98.78329345435878395 0.800000000000011368684 43.49076354678931722
1.007140329435344483500 109.09263514043210819 1.007140329435344483500 47.00387132363510290
1.267914553968893187630 120.20976913900143757 1.267914553968893187630 50.82439662931966495
1.596209851975103788391 132.19996550965333881 1.596209851975103788391 54.97790834506993463
2.009509145207672986544 145.12333582021295797 2.009509145207672986544 59.43569119771714782
2.529822128134725289783 159.02270307088448931 2.529822128134725289783 64.11390364044169132
3.184857364427998049905 173.90829204021054011 3.184857364427998049905 68.86882929477695825
4.009497869018190385759 189.74362474054049699 4.009497869018190385759 73.51065216689713111
5.009497869018204596614 205.87379102816245791 5.009497869018204596614 77.69284797188647929
6.009497869018190385759 219.55735222986260169 6.009497869018190385759 80.76455967125068014
7.009497869018190385759 231.40658501194170071 7.009497869018190385759 83.01974892364631842
8.009497869018204596614 241.81664096692250610 8.009497869018204596614 84.64728017421931838
9.009497869018190385759 251.06517171619591977 9.009497869018190385759 85.77332971553829566
10.009497869018190385759 259.35877542480278635 10.009497869018190385759 86.50375461771592711
11.009497869018204596614 266.84941955905560462 11.009497869018204596614 87.02094006354985822
12.009497869018190385759 273.65655826259342120 12.009497869018190385759 87.29161726569806490
13.009497869018190385759 279.87438583691141503 13.009497869018190385759 87.36322110579122580
14.009497869018204596614 285.57912850927033332 14.009497869018204596614 87.27084845328330687
15.009497869018190385759 290.83351208300888402 15.009497869018190385759 87.01883802323293082
16.009497869018190385759 295.69000280753937204 16.009497869018190385759 86.61649183589200618
17.009497869018190385759 300.18754183915041267 17.009497869018190385759 86.00344745808112634
18.009497869018204596614 304.36174400754356384 18.009497869018204596614 85.29407307295943497
19.009497869018190385759 308.24217432402559780 19.009497869018190385759 84.36204360263455726
20.009497869018190385759 311.85305804062829793 20.009497869018190385759 83.44481724260148781
21.009497869018204596614 315.21586068270090664 21.009497869018204596614 82.46557550379523605
22.009497869018190385759 318.35427074402650760 22.009497869018190385759 81.43915570982623819
23.009497869018190385759 321.29267789292788393 23.009497869018190385759 80.34028819343605221
24.009497869018204596614 324.04746628166867595 24.009497869018204596614 79.23812462010512547
25.009497869018190385759 326.63345957214266946 25.009497869018190385759 78.07633756064329589
26.009497869018190385759 329.06408909829303866 26.009497869018190385759 76.74035483258310819
27.009497869018204596614 331.35033215566136278 27.009497869018204596614 75.37465967439207759
28.009497869018190385759 333.49535365947360788 28.009497869018190385759 73.95359614249717595
29.009497869018190385759 335.50454686844449270 29.009497869018190385759 72.51355535213578207
30.009497869018190385759 337.38857898869019891 30.009497869018190385759 71.07046589419346105
31.009497869018190385759 339.15194897340842317 31.009497869018190385759 69.58820372974565771
32.009497869018190385759 340.81001065377495252 32.009497869018190385759 68.09990511601972685
33.009497869018190385759 342.37508206348741169 33.009497869018190385759 66.63654740644209085
34.009497869018190385759 343.85332635851477789 34.009497869018190385759 65.16102454825168877
35.009497869018190385759 345.24865988481457180 35.009497869018190385759 63.62630647150621854
36.009497869018190385759 346.56637259701307130 36.009497869018190385759 62.19829032483745834
37.009497869018190385759 347.80952753410628020 37.009497869018190385759 60.78011026727842392
38.009497869018190385759 348.98096307916313208 38.009497869018190385759 59.34954861537698179
39.009497869018190385759 350.08328567428145561 39.009497869018190385759 57.88997252379382985
40.009497869018190385759 351.12284689981845531 40.009497869018190385759 56.37274498419836277
41.009497869018190385759 352.10367277824548182 41.009497869018190385759 54.97050458210165402
42.009497869018190385759 353.02944580226341031 42.009497869018190385759 53.53222836672747320
43.009497869018190385759 353.90376211929492456 43.009497869018190385759 52.14149988880781450
44.009497869018190385759 354.72980437844063317 44.009497869018190385759 50.73999710012896713
46.009497869018190385759 356.24837933614463736 46.009497869018190385759 48.03652941461582770
48.009497869018190385759 357.60567857517617085 48.009497869018190385759 45.45233313560419930
50.009497869018218807469 358.81914380322052693 50.009497869018218807469 42.95055225061985027
52.009497869018190385759 359.90547676119189191 52.009497869018190385759 40.54401842823659763
54.009497869018190385759 360.87837699414103554 54.009497869018190385759 38.25218308830795877
56.009497869018190385759 361.75052167229733868 56.009497869018190385759 36.05532778764791857
58.009497869018190385759 362.53260189696402449 58.009497869018190385759 33.96286167707134496
60.009497869018190385759 363.23472897209381927 60.009497869018190385759 31.97215109548690748
62.009497869018190385759 363.86501571792194909 62.009497869018190385759 30.07557367372215751
64.009497869018190385759 364.43178577489169356 64.009497869018190385759 28.27272320179219989
66.009497869018218807469 364.94125838680702145 66.009497869018218807469 26.58012571777637589
68.009497869018190385759 365.39957650772856823 68.009497869018190385759 24.98007520698398309
70.009497869018190385759 365.81214637985436866 70.009497869018190385759 23.44539743355168326
72.009497869018190385759 366.18339652840325016 72.009497869018190385759 22.01721575958567456
74.009497869018218807469 366.51790485445286549 74.009497869018218807469 20.65632097197942585
76.009497869018190385759 366.81940661700787132 76.009497869018190385759 19.36938968431376651
78.009497869018190385759 367.09119993092343748 78.009497869018190385759 18.15017325202010312
80.009497869018218807469 367.33635162409865416 80.009497869018218807469 17.00583361574563313
82.009497869018190385759 367.55742528255240131 82.009497869018190385759 15.91873087527950048
84.009497869018190385759 367.75672081132080393 84.009497869018190385759 14.85858436129295512
86.009497869018218807469 367.93657739014753361 86.009497869018218807469 13.88782510511985890
88.009497869018190385759 368.09889043815121568 88.009497869018190385759 12.94164909173603029
91.009497869018190385759 368.31313662315329793 91.009497869018190385759 11.63258554209910045
94.009497869018190385759 368.49704484706563790 94.009497869018190385759 10.41498660520275621
97.009497869018190385759 368.65452384723431578 97.009497869018190385759 9.31484987899045791
99.504748934509137825444 368.76815415769334550 99.504748934509137825444 7.91659457402767686
nan nan nan nan

