Time Pressure difference Time.1 Pressure.1 difference.1
(hr) (psi) (hr) (psi)
0.000200000000006639311 0.67674336231460097 0.000200000000006639311 0.54244558975481771
0.000399999999999067768 1.26548189313208215 0.000399999999999067768 1.15629962944142095
0.000600000000019917934 1.80711575544056124 0.000600000000019917934 1.58735276946541037
0.000799999999998135536 2.31510223912510638 0.000799999999998135536 1.98739724073850832
0.001007140329448930061 2.81355188560470992 0.001007140329448930061 2.37489445661441412
0.001267914553963578328 3.40877021598857066 0.001267914553963578328 2.82948709217791627
0.001596209851982166583 4.11656184790470991 0.001596209851982166583 3.35678320734694635
0.002009509145210586212 4.95460063658304950 0.002009509145210586212 3.96512065420704563
0.002529822128153114136 5.94252967526500164 0.002529822128153114136 4.66328061618373990
0.003184857364431081805 7.10206491040027377 0.003184857364431081805 5.46052458727743328
0.004009497869020606231 8.45711194260151800 0.004009497869020606231 6.36667831277350782
0.005047658755856332391 10.03390797536421353 0.005047658755856332391 7.39226870966474792
0.006354625877790454069 11.86120121584859177 0.006354625877790454069 8.54870807371650443
0.007999999999995566213 13.97047701534160069 0.007999999999995566213 9.84851154064925005
0.010071403294347192059 16.39623651504442137 0.010071403294347192059 11.30555547671511718
0.012679145539706837553 19.17634051412479579 0.012679145539706837553 12.93544734238823146
0.015962098519764822413 22.35245665707780560 0.015962098519764822413 14.75609738520612346
0.020095091452077440408 25.97066404063073009 0.020095091452077440408 16.78837770406066809
0.025298221281346400247 30.08220031284212581 0.025298221281346400247 19.05626706704701334
0.031848573644282396344 34.74412793293215884 0.031848573644282396344 21.58547814995293734
0.040094978690177640601 40.01944225508919573 0.040094978690177640601 24.39985062474444177
0.050476587558421215363 45.97606785850032907 0.050476587558421215363 27.51591144490842922
0.063546258777947173257 52.68445046434193557 0.063546258777947173257 30.93773991252461286
0.079999999999998294697 60.21417489671895140 0.079999999999998294697 34.65474823636385793
0.100714032943528764008 68.63051779067093605 0.100714032943528764008 38.64284238143302730
0.126791455396883634421 77.99157827982992330 0.126791455396883634421 42.87076270954405999
0.159620985197506115583 88.34772032035441214 0.159620985197506115583 47.31070981900474237
0.200950914520774404082 99.74355267115082313 0.200950914520774404082 51.93978176145203207
0.252982212813464002465 112.21797914958668230 0.252982212813464002465 56.75079363756518802
0.318485736442795541734 125.81107251634627175 0.318485736442795541734 61.76750312561288325
0.400949786901833249431 140.57100316075786850 0.400949786901833249431 67.00945575907805107
0.504765875584169521062 156.54461967148790791 0.504765875584169521062 72.53360686124752021
0.635462587779429100010 173.80322494086223628 0.635462587779429100010 78.40522747456923014
0.800000000000011368684 192.41956159847040908 0.800000000000011368684 84.71547528552949302
1.007140329435344483500 212.50108488276555363 1.007140329435344483500 91.55864313942549870
1.267914553968893187630 234.15610341304488884 1.267914553968893187630 99.00062830400543135
1.596209851975103788391 257.51175646369352989 1.596209851975103788391 107.09123629540677314
2.009509145207672986544 282.68513510470336314 2.009509145207672986544 115.77453275386987741
2.529822128134725289783 309.75965407795541751 2.529822128134725289783 124.88720308318502816
3.184857364427998049905 338.75523018654234875 3.184857364427998049905 134.14930275455554920
4.009497869018190385759 369.60080811183439664 4.009497869018190385759 143.19108999243286462
5.009497869018204596614 401.02069114102982894 5.009497869018204596614 151.33757160054841506
6.009497869018190385759 427.67484241969225423 6.009497869018190385759 157.32094589269675566
7.009497869018190385759 450.75591308939340252 7.009497869018190385759 161.71381954666173897
8.009497869018204596614 471.03361727424584160 8.009497869018204596614 164.88408082032302104
9.009497869018190385759 489.04879139908308616 9.009497869018190385759 167.07750798297240635
10.009497869018190385759 505.20386716013683781 10.009497869018190385759 168.50029957599173258
11.009497869018204596614 519.79486134549506460 11.009497869018204596614 169.50772292939970498
12.009497869018190385759 533.05445817883924065 12.009497869018190385759 170.03497391234171232
13.009497869018190385759 545.16613834364295599 13.009497869018190385759 170.17445073112037335
14.009497869018204596614 556.27838258719589248 14.009497869018204596614 169.99451843004283091
15.009497869018190385759 566.51337423784502789 15.009497869018190385759 169.50362837391261905
16.009497869018190385759 575.97331208202058406 16.009497869018190385759 168.71989992883172249
17.009497869018190385759 584.73404943417676805 17.009497869018190385759 167.52575336524017757
18.009497869018204596614 592.86496027120722374 18.009497869018204596614 166.14396598580475484
19.009497869018190385759 600.42363415421414174 19.009497869018190385759 164.32846970292743549
20.009497869018190385759 607.45725934968072579 20.009497869018190385759 162.54180833628990399
21.009497869018204596614 614.00764846409879283 21.009497869018204596614 160.63434747432657446
22.009497869018190385759 620.12094421481720019 22.009497869018190385759 158.63498867725675723
23.009497869018190385759 625.84465513412010296 23.009497869018190385759 156.49450926657280547
24.009497869018204596614 631.21069584325039159 24.009497869018204596614 154.34760948044524298
25.009497869018190385759 636.24794129082704330 25.009497869018190385759 152.08456935660379372
26.009497869018190385759 640.98255431571317331 26.009497869018190385759 149.48221422298755101
27.009497869018204596614 645.43591754569717978 27.009497869018204596614 146.82198237176172029
28.009497869018190385759 649.61419590582841010 28.009497869018190385759 144.05389869841135919
29.009497869018190385759 653.52789490206021128 29.009497869018190385759 141.24884930315829479
30.009497869018190385759 657.19779314029426587 30.009497869018190385759 138.43786142115439475
31.009497869018190385759 660.63265411253098591 31.009497869018190385759 135.55056918900356777
32.009497869018190385759 663.86238548190237907 32.009497869018190385759 132.65151858270778007
33.009497869018190385759 666.91098149440847465 33.009497869018190385759 129.80105025864071422
34.009497869018190385759 669.79044733562386682 34.009497869018190385759 126.92688549278685173
35.009497869018190385759 672.50841163935831446 35.009497869018190385759 123.93741460982775493
36.009497869018190385759 675.07517868596539756 36.009497869018190385759 121.15578796741885981
37.009497869018190385759 677.49671495621510076 37.009497869018190385759 118.39332100159244021
38.009497869018190385759 679.77854932454215486 38.009497869018190385759 115.60673598025336162
39.009497869018190385759 681.92575886854024247 39.009497869018190385759 112.76363385396312822
40.009497869018190385759 683.95071580485671348 40.009497869018190385759 109.80823271471103908
41.009497869018190385759 685.86126240572059487 41.009497869018190385759 107.07681453667896676
42.009497869018190385759 687.66457178316636600 42.009497869018190385759 104.27520234961744450
43.009497869018190385759 689.36764885762465838 43.009497869018190385759 101.56620820024286900
44.009497869018190385759 690.97669309788432201 44.009497869018190385759 98.83622681628327200
46.009497869018190385759 693.93471886719964914 46.009497869018190385759 93.57015348899115281
48.009497869018190385759 696.57859634282806383 48.009497869018190385759 88.53640843247951864
50.009497869018218807469 698.94230015376831489 50.009497869018218807469 83.66319997515529394
52.009497869018190385759 701.05836355085875766 52.009497869018190385759 78.97552287023241036
54.009497869018190385759 702.95347182025057009 54.009497869018190385759 74.51126645658382586
56.009497869018190385759 704.65231876848292814 56.009497869018190385759 70.23202126171096893
58.009497869018190385759 706.17572954679167196 58.009497869018190385759 66.15611533088846841
60.009497869018190385759 707.54339992159350459 60.009497869018190385759 62.27841856676006671
62.009497869018190385759 708.77113282128277660 62.009497869018190385759 58.58408338849285713
64.009497869018190385759 709.87514183004952883 64.009497869018190385759 55.07231854136676930
66.009497869018218807469 710.86754138672631598 66.009497869018218807469 51.77531502540809072
68.009497869018190385759 711.76029732567565134 68.009497869018190385759 48.65858336911508530
70.009497869018190385759 712.56394044332353133 70.009497869018190385759 45.66919099281008698
72.009497869018190385759 713.28709704530660929 72.009497869018190385759 42.88724192047549622
74.009497869018218807469 713.93868440586811630 74.009497869018218807469 40.23636069090982659
76.009497869018190385759 714.52597842030388620 76.009497869018190385759 37.72955265160917548
78.009497869018190385759 715.05540347266048684 78.009497869018190385759 35.35464609411531711
80.009497869018218807469 715.53293342409597244 80.009497869018218807469 33.12559173247446154
82.009497869018190385759 715.96356187302797025 82.009497869018190385759 31.00802887930194984
84.009497869018190385759 716.35176879479718082 84.009497869018190385759 28.94297394624599917
86.009497869018218807469 716.70211066778244913 86.009497869018218807469 27.05203607650601683
88.009497869018190385759 717.01827957090779364 88.009497869018190385759 25.20898380193872157
91.009497869018190385759 717.43560881303619681 91.009497869018190385759 22.65906442268601850
94.009497869018190385759 717.79384286843242080 94.009497869018190385759 20.28730857766949569
97.009497869018190385759 718.10059555012367127 97.009497869018190385759 18.14435687851447554
99.504748934509137825444 718.32193555366325199 99.504748934509137825444 15.42070125441864015
nan nan nan nan

