Time Pressure difference Time.1 Pressure.1 difference.1
(hr) (psi) (hr) (psi)
0.000200000000006639311 0.25273440382736639 0.000200000000006639311 0.20257998876645972
0.000399999999999067768 0.47260280576846275 0.000399999999999067768 0.43182794803213564
0.000600000000019917934 0.67487964940835776 0.000600000000019917934 0.59280767007813162
0.000799999999998135536 0.86459065103128974 0.000799999999998135536 0.74220699422641823
0.001007140329448930061 1.05074005604373411 0.001007140329448930061 0.88692046064921015
0.001267914553963578328 1.27302838313153388 0.001267914553963578328 1.05669116714051814
0.001596209851982166583 1.53735797406317842 0.001596209851982166583 1.25361348175611265
0.002009509145210586212 1.85032925008194127 0.002009509145210586212 1.48080123197238445
0.002529822128153114136 2.21927805773785547 0.002529822128153114136 1.74153381036491495
0.003184857364431081805 2.65231436468652193 0.003184857364431081805 2.03926998475484433
0.004009497869020606231 3.15836587979871508 0.004009497869020606231 2.37767924643701978
0.005047658755856332391 3.74723106487367241 0.005047658755856332391 2.76069294404146426
0.006354625877790454069 4.42964613307925781 0.006354625877790454069 3.19257307691264547
0.007999999999995566213 5.21736950264300425 0.007999999999995566213 3.67799350746468834
0.010071403294347192059 6.12328585901350309 0.010071403294347192059 4.22213645889669476
0.012679145539706837553 7.16153457471944588 0.012679145539706837553 4.83083064329930867
0.015962098519764822413 8.34767671452597071 0.015962098519764822413 5.51076476422821315
0.020095091452077440408 9.69892082998863536 0.020095091452077440408 6.26973364873870675
0.025298221281346400247 11.23440196868486751 0.025298221281346400247 7.11669233059471740
0.031848573644282396344 12.97543049347157762 0.031848573644282396344 8.06124338316143607
0.040094978690177640601 14.94553244711664419 0.040094978690177640601 9.11228989380887988
0.050476587558421215363 17.17007472493376241 0.050476587558421215363 10.27600396553678941
0.063546258777947173257 19.67536575983140068 0.063546258777947173257 11.55390904140579700
0.079999999999998294697 22.48739247686108911 0.079999999999998294697 12.94205103888897135
0.100714032943528764008 25.63053287861476548 0.100714032943528764008 14.43143187701665475
0.126791455396883634421 29.12648448104759424 0.126791455396883634421 16.01037743165071348
0.159620985197506115583 32.99405604556445581 0.159620985197506115583 17.66850582746782194
0.200950914520774404082 37.24990701607793397 0.200950914520774404082 19.39726417634473776
0.252982212813464002465 41.90856628734564282 0.252982212813464002465 21.19396922884378753
0.318485736442795541734 46.98499930394413582 0.318485736442795541734 23.06749345123197159
0.400949786901833249431 52.49719562485093149 0.400949786901833249431 25.02513625570507116
0.504765875584169521062 58.46265117361122066 0.504765875584169521062 27.08816799447823698
0.635462587779429100010 64.90799449951954614 0.635462587779429100010 29.28096458155208737
0.800000000000011368684 71.86039183152752230 0.800000000000011368684 31.63756947391688001
1.007140329435344483500 79.35997305806984059 1.007140329435344483500 34.19319697490890775
1.267914553968893187630 87.44718676845194238 1.267914553968893187630 36.97245686661931074
1.596209851975103788391 96.16951398798431683 1.596209851975103788391 39.99394935723524469
2.009509145207672986544 105.57068317181824568 2.009509145207672986544 43.23678538030325313
2.529822128134725289783 115.68184612170556136 2.529822128134725289783 46.63997399094255059
3.184857364427998049905 126.51044090299883749 3.184857364427998049905 50.09896800401611472
4.009497869018190385759 138.02993142448136155 4.009497869018190385759 53.47568484285301338
5.009497869018204596614 149.76390008661917363 5.009497869018204596614 56.51804371501962265
6.009497869018190385759 159.71807386661348005 6.009497869018190385759 58.75257547227254662
7.009497869018190385759 168.33785643153271394 7.009497869018190385759 60.39312396650021952
8.009497869018204596614 175.91070274748068414 8.009497869018204596614 61.57707956561446139
9.009497869018190385759 182.63859184965755844 9.009497869018190385759 62.39622983314709614
10.009497869018190385759 188.67181458758199142 10.009497869018190385759 62.92758101449074104
11.009497869018204596614 194.12092044075589570 11.009497869018204596614 63.30381010634989281
12.009497869018190385759 199.07280691246776883 12.009497869018190385759 63.50071556602884471
13.009497869018190385759 203.59599610981732098 13.009497869018190385759 63.55280413106656567
14.009497869018204596614 207.74593917608243032 14.009497869018204596614 63.48560719146661313
15.009497869018190385759 211.56826630487421426 15.009497869018190385759 63.30228096680070138
16.009497869018190385759 215.10114432692745368 16.009497869018190385759 63.00959225737233993
17.009497869018190385759 218.37290117757837038 17.009497869018190385759 62.56363011479649572
18.009497869018204596614 221.40944503955574874 18.009497869018204596614 62.04759223543942426
19.009497869018190385759 224.23228312549355223 19.009497869018190385759 61.36958282115499941
20.009497869018190385759 226.85903821392398072 20.009497869018190385759 60.70234200213295850
21.009497869018204596614 229.30532550665418512 21.009497869018204596614 59.98998779133801662
22.009497869018190385759 231.58837731479280819 22.009497869018190385759 59.24331367267921422
23.009497869018190385759 233.72593602231029308 23.009497869018190385759 58.44393710263985042
24.009497869018204596614 235.72992036121388537 24.009497869018204596614 57.64216279979591206
25.009497869018190385759 237.61111387712986698 25.009497869018190385759 56.79701509922549008
26.009497869018190385759 239.37928725988055589 26.009497869018190385759 55.82514790426387208
27.009497869018204596614 241.04242599700413052 27.009497869018204596614 54.83166625612089007
28.009497869018190385759 242.60283242162108763 28.009497869018190385759 53.79790661267831098
29.009497869018190385759 244.06442988626324109 29.009497869018190385759 52.75034186938936642
30.009497869018190385759 245.43497830239383006 30.009497869018190385759 51.70055935790025359
31.009497869018190385759 246.71775045560573858 31.009497869018190385759 50.62228046873281784
32.009497869018190385759 247.92391556577214828 32.009497869018190385759 49.53961033490012511
33.009497869018190385759 249.06243444698586131 33.009497869018190385759 48.47508358424544639
34.009497869018190385759 250.13779051731634695 34.009497869018190385759 47.40170723650373219
35.009497869018190385759 251.15283274185910045 35.009497869018190385759 46.28526903638628909
36.009497869018190385759 252.11140932407968762 36.009497869018190385759 45.24645167919037902
37.009497869018190385759 253.01574848673465112 37.009497869018190385759 44.21478963331075818
38.009497869018190385759 253.86791502552347310 38.009497869018190385759 43.17412053583535680
39.009497869018190385759 254.66980500954744571 39.009497869018190385759 42.11234474175783760
40.009497869018190385759 255.42603892712244829 40.009497869018190385759 41.00863011876553799
41.009497869018190385759 256.13954552806234233 41.009497869018190385759 39.98856345351282471
42.009497869018190385759 256.81300365976278499 42.009497869018190385759 38.94228235896207480
43.009497869018190385759 257.44902935732278593 43.009497869018190385759 37.93059009947342020
44.009497869018190385759 258.04993785445680032 44.009497869018190385759 36.91106001472306986
46.009497869018190385759 259.15463266336774950 46.009497869018190385759 34.94440917335780483
48.009497869018190385759 260.14200665889563879 48.009497869018190385759 33.06452290225315949
50.009497869018218807469 261.02474789693195589 50.009497869018218807469 31.24459011417837218
52.009497869018190385759 261.81500614090714407 52.009497869018190385759 29.49394526943864747
54.009497869018190385759 262.52274719213062326 54.009497869018190385759 27.82673839890939504
56.009497869018190385759 263.15719312032848620 56.009497869018190385759 26.22862522428095033
58.009497869018190385759 263.72612121963521759 58.009497869018190385759 24.70645047851082055
60.009497869018190385759 264.23688700775562666 60.009497869018190385759 23.25829829190730536
62.009497869018190385759 264.69539219560255106 62.009497869018190385759 21.87862373459147136
64.009497869018190385759 265.10769185628396372 64.009497869018190385759 20.56713130711536763
66.009497869018218807469 265.47831020924036238 66.009497869018218807469 19.33584295701968614
68.009497869018190385759 265.81171597656407357 68.009497869018190385759 18.17187835698434029
70.009497869018190385759 266.11184195568563382 70.009497869018190385759 17.05546947570994121
72.009497869018190385759 266.38190969901876315 72.009497869018190385759 16.01653170486893529
74.009497869018218807469 266.62524942317912746 74.009497869018218807469 15.02654210987681793
76.009497869018190385759 266.84457836066906111 76.009497869018190385759 14.09035762606392161
78.009497869018190385759 267.04229574133307779 78.009497869018190385759 13.20343264625911495
80.009497869018218807469 267.22063254418395672 80.009497869018218807469 12.37097715935002817
82.009497869018190385759 267.38145366245800005 82.009497869018190385759 11.58015893331955581
84.009497869018190385759 267.52643217336560610 84.009497869018190385759 10.80895014659187048
86.009497869018218807469 267.65726972469650491 86.009497869018218807469 10.10276655943589041
88.009497869018190385759 267.77534514839453550 88.009497869018190385759 9.41446617294625021
91.009497869018190385759 267.93119958758450139 91.009497869018190385759 8.46218146649693814
94.009497869018190385759 268.06498452802566135 94.009497869018190385759 7.57643314166052129
97.009497869018190385759 268.17954339989182699 97.009497869018190385759 6.77613327870448146
99.504748934509137825444 268.26220432713967057 99.504748934509137825444 5.75896559192794921
nan nan nan nan

