Time Pressure difference Time.1 Pressure.1 difference.1
(hr) (psi) (hr) (psi)
0.000200000000006639311 0.18450307717424821 0.000200000000006639311 0.14788897251545954
0.000399999999999067768 0.34501306757201833 0.000399999999999067768 0.31524629815018168
0.000600000000019917934 0.49268073579398020 0.000600000000019917934 0.43276592994684543
0.000799999999998135536 0.63117499317711245 0.000799999999998135536 0.54183155225895541
0.001007140329448930061 0.76706918691897941 0.001007140329448930061 0.64747636934446473
0.001267914553963578328 0.92934578933844769 0.001267914553963578328 0.77141366196208627
0.001596209851982166583 1.12231367252546077 0.001596209851982166583 0.91517237648862215
0.002009509145210586212 1.35079132581739514 0.002009509145210586212 1.08102569276220883
0.002529822128153114136 1.62013411928521123 0.002529822128153114136 1.27136765770441462
0.003184857364431081805 1.93626255273258496 0.003184857364431081805 1.48872326710753078
0.004009497869020606231 2.30569409957757454 0.004009497869020606231 1.73577135070471145
0.005047658755856332391 2.73558190686370040 0.005047658755856332391 2.01538190129748784
0.006354625877790454069 3.23376370596695173 0.006354625877790454069 2.33066629581777107
0.007999999999995566213 3.80882346611679434 0.007999999999995566213 2.68503658258441469
0.010071403294347192059 4.47016736264071213 0.010071403294347192059 3.08227592729373079
0.012679145539706837553 5.22811752699904453 0.012679145539706837553 3.52663945034247028
0.015962098519764822413 6.09403396514981210 0.015962098519764822413 4.02301008958809003
0.020095091452077440408 7.08047939379335656 0.020095091452077440408 4.57707828351448320
0.025298221281346400247 8.20142292479749280 0.025298221281346400247 5.19538145346446356
0.031848573644282396344 9.47242171011010470 0.031848573644282396344 5.88492974252832024
0.040094978690177640601 10.91065040905209571 0.040094978690177640601 6.65222264975028477
0.050476587558421215363 12.53462755401500850 0.050476587558421215363 7.50176598035054898
0.063546258777947173257 14.36355902577223453 0.063546258777947173257 8.43467188973150428
0.079999999999998294697 16.41641599550465358 0.079999999999998294697 9.44805378872059798
0.100714032943528764008 18.71099507667469197 0.100714032943528764008 10.53534283032896290
0.126791455396883634421 21.26313605365733395 0.126791455396883634421 11.68801658233454255
0.159620985197506115583 24.08656984042584170 0.159620985197506115583 12.89849598974923417
0.200950914520774404082 27.19345828997424874 0.200950914520774404082 14.16053720862632481
0.252982212813464002465 30.59440789572065000 0.252982212813464002465 15.47218139295758554
0.318485736442795541734 34.30034384447711915 0.318485736442795541734 16.83990568753849004
0.400949786901833249431 38.32439900987740344 0.400949786901833249431 18.26903886435769664
0.504765875584169521062 42.67934589809083690 0.504765875584169521062 19.77510886649237776
0.635462587779429100010 47.38462408367128376 0.635462587779429100010 21.37591078267576705
0.800000000000011368684 52.46006566213441857 0.800000000000011368684 23.09629727434703028
1.007140329435344483500 57.93496655754410085 1.007140329435344483500 24.96197575303267158
1.267914553968893187630 63.83885535437951120 1.267914553968893187630 26.99091203761464897
1.596209851975103788391 70.20639450913455448 1.596209851975103788391 29.19668479247200565
2.009509145207672986544 77.06950699871029542 2.009509145207672986544 31.56404442363736607
2.529822128134725289783 84.45093449656191353 2.529822128134725289783 34.04846586115640861
3.184857364427998049905 92.35610699530218426 3.184857364427998049905 36.57362677979137544
4.009497869018190385759 100.76565241732110678 4.009497869018190385759 39.03872309464475876
5.009497869018204596614 109.33177279050710240 5.009497869018204596614 41.25972888286555929
6.009497869018190385759 116.59859386956630090 6.009497869018190385759 42.89099862300888333
7.009497869018190385759 122.89127260153216525 7.009497869018190385759 44.08864421796847921
8.009497869018204596614 128.41965903052997078 8.009497869018204596614 44.95296442117859925
9.009497869018190385759 133.33120341641668460 9.009497869018190385759 45.55096668260050308
10.009497869018190385759 137.73562221958465557 10.009497869018190385759 45.93886768275495314
11.009497869018204596614 141.71361960551050174 11.009497869018204596614 46.21352528424991846
12.009497869018190385759 145.32863314546543165 12.009497869018190385759 46.35727169420839289
13.009497869018190385759 148.63068586529362847 13.009497869018190385759 46.39529778163261398
14.009497869018204596614 151.66025862716762163 14.009497869018204596614 46.34624216456928991
15.009497869018190385759 154.45066272945362584 15.009497869018190385759 46.21240897025396066
16.009497869018190385759 157.02976101001590337 16.009497869018190385759 45.99873814932140448
17.009497869018190385759 159.41823364203378333 17.009497869018190385759 45.67317349978256402
18.009497869018204596614 161.63499431262334838 18.009497869018204596614 45.29645163193236357
19.009497869018190385759 163.69574387949253946 19.009497869018190385759 44.80148608155943180
20.009497869018190385759 165.61334745644589361 20.009497869018190385759 44.31438190238356611
21.009497869018204596614 167.39920457097343842 21.009497869018204596614 43.79434370442031366
22.009497869018190385759 169.06589528490383145 22.009497869018190385759 43.24925102826443890
23.009497869018190385759 170.62637202730641661 23.009497869018190385759 42.66568411074259615
24.009497869018204596614 172.08933580088617532 24.009497869018204596614 42.08036678222015325
25.009497869018190385759 173.46265889101763946 25.009497869018190385759 41.46338567849794288
26.009497869018190385759 174.75347417043622045 26.009497869018190385759 40.75389585297499906
27.009497869018204596614 175.96761126503059813 27.009497869018204596614 40.02862688119018486
28.009497869018190385759 177.10675094140381702 28.009497869018190385759 39.27395386325000715
29.009497869018190385759 178.17375735498555400 29.009497869018190385759 38.50920274211620153
30.009497869018190385759 179.17429545491563658 30.009497869018190385759 37.74283258910073613
31.009497869018190385759 180.11075446483613405 31.009497869018190385759 36.95565929535591465
32.009497869018190385759 180.99128822294659358 32.009497869018190385759 36.16528027203452211
33.009497869018190385759 181.82243837038913625 33.009497869018190385759 35.38814641825081253
34.009497869018190385759 182.60747792586454352 34.009497869018190385759 34.60455211480299909
35.009497869018190385759 183.34848671237648432 35.009497869018190385759 33.78952147284397967
36.009497869018190385759 184.04827402446585438 36.009497869018190385759 33.03115618453291802
37.009497869018190385759 184.70846652612857497 37.009497869018190385759 32.27801447059876239
38.009497869018190385759 185.33057157510666002 38.009497869018190385759 31.51829736087154288
39.009497869018190385759 185.91597335407732317 39.009497869018190385759 30.74317178117307847
40.009497869018190385759 186.46804494679736308 40.009497869018190385759 29.93742970102718459
41.009497869018190385759 186.98892442131273128 41.009497869018190385759 29.19275293438264285
42.009497869018190385759 187.48056741001965975 42.009497869018190385759 28.42893891218994185
43.009497869018190385759 187.94488369060755417 43.009497869018190385759 27.69037569245304908
44.009497869018190385759 188.38356344746847526 44.009497869018190385759 26.94609064435706358
46.009497869018190385759 189.19002109033735337 46.009497869018190385759 25.51038135245129368
48.009497869018190385759 189.91083130745829521 48.009497869018190385759 24.13801258704431518
50.009497869018218807469 190.55525672916519397 50.009497869018218807469 22.80941151586024063
52.009497869018190385759 191.13216701746662807 52.009497869018190385759 21.53139255206953706
54.009497869018190385759 191.64883748185846457 54.009497869018190385759 20.31428560801925443
56.009497869018190385759 192.11200048729216405 56.009497869018190385759 19.14761896538416508
58.009497869018190385759 192.52733367273643239 58.009497869018190385759 18.03638946778337981
60.009497869018190385759 192.90020676874721062 60.009497869018190385759 16.97919847756318745
62.009497869018190385759 193.23492818687239492 62.009497869018190385759 15.97199804315906313
64.009497869018190385759 193.53591829728719631 64.009497869018190385759 15.01457244183353268
66.009497869018218807469 193.80647990481736542 66.009497869018218807469 14.11569802647442806
68.009497869018190385759 194.04987529969551474 68.009497869018190385759 13.26597180330812797
70.009497869018190385759 194.26897553238757155 70.009497869018190385759 12.45096256491221531
72.009497869018190385759 194.46613242490352036 72.009497869018190385759 11.69250937132305346
74.009497869018218807469 194.64377712711421964 74.009497869018218807469 10.96978969453817321
76.009497869018190385759 194.80389329360139072 76.009497869018190385759 10.28634923114859312
78.009497869018190385759 194.94823242824591603 78.009497869018190385759 9.63886956269604944
80.009497869018218807469 195.07842320718665974 80.009497869018218807469 9.03115412459437472
82.009497869018190385759 195.19582705386051202 82.009497869018190385759 8.45383503396606706
84.009497869018190385759 195.30166536072150052 84.009497869018190385759 7.89083137423373326
86.009497869018218807469 195.39718037753326030 86.009497869018218807469 7.37529790151655806
88.009497869018190385759 195.48337868959933417 88.009497869018190385759 6.87281965793596772
91.009497869018190385759 195.59715672371871165 91.009497869018190385759 6.17762558848950150
94.009497869018190385759 195.69482341577631246 94.009497869018190385759 5.53100491057861809
97.009497869018190385759 195.77845454813041215 97.009497869018190385759 4.94676396379252736
99.504748934509137825444 195.83879930218182608 99.504748934509137825444 4.20420353129726276
nan nan nan nan

