Time Pressure difference Time.1 Pressure.1 difference.1
(hr) (psi) (hr) (psi)
0.000200000000006639311 0.52565971043983917 0.000200000000006639311 0.42134405377046025
0.000399999999999067768 0.98296175855424062 0.000399999999999067768 0.89815454755995150
0.000600000000019917934 1.40367530386586803 0.000600000000019917934 1.23297463060327650
0.000799999999998135536 1.79825328244799953 0.000799999999998135536 1.54370876209626906
0.001007140329448930061 2.18542353254275268 0.001007140329448930061 1.84469682586819173
0.001267914553963578328 2.64775875830387930 0.001267914553963578328 2.19780118785424561
0.001596209851982166583 3.19753518021404881 0.001596209851982166583 2.60737790282607440
0.002009509145210586212 3.84848094714012579 0.002009509145210586212 3.07990338881308556
0.002529822128153114136 4.61585381154843155 0.002529822128153114136 3.62219842100691691
0.003184857364431081805 5.51652161250227024 0.003184857364431081805 4.24145685534409722
0.004009497869020606231 6.56905300068327769 0.004009497869020606231 4.94531082936625310
0.005047658755856332391 7.79382769691356003 0.005047658755856332391 5.74193711501737081
0.006354625877790454069 9.21317584152848568 0.006354625877790454069 6.64020020129214039
0.007999999999995566213 10.85155364874784745 0.007999999999995566213 7.64982120698578516
0.010071403294347192059 12.73575984450467047 0.010071403294347192059 8.78157858530855506
0.012679145539706837553 14.89520276560105216 0.012679145539706837553 10.04759541512666132
0.015962098519764822413 17.36224771203059802 0.015962098519764822413 11.46178346278870741
0.020095091452077440408 20.17268657476975235 0.020095091452077440408 13.04035510963560185
0.025298221281346400247 23.36631814423436637 0.025298221281346400247 14.80193583911573540
0.031848573644282396344 26.98746562691747286 0.031848573644282396344 16.76649794569389584
0.040094978690177640601 31.08506059937483812 0.040094978690177640601 18.95255887004326567
0.050476587558421215363 35.71186340860879938 0.050476587558421215363 21.37295590628175646
0.063546258777947173257 40.92259269606807237 0.063546258777947173257 24.03085764810296610
0.079999999999998294697 46.77129840228683832 0.079999999999998294697 26.91804003956246305
0.100714032943528764008 53.30868408637505951 0.100714032943528764008 30.01578806376742392
0.126791455396883634421 60.57987819060863188 0.126791455396883634421 33.29982082891540074
0.159620985197506115583 68.62400086611890515 0.159620985197506115583 36.74854517834216239
0.200950914520774404082 77.47570192049266780 0.200950914520774404082 40.34417204721839312
0.252982212813464002465 87.16519985384562119 0.252982212813464002465 44.08112057238859194
0.318485736442795541734 97.72362114181217407 0.318485736442795541734 47.97784450600589423
0.400949786901833249431 109.18838208474504370 0.400949786901833249431 52.04952582109457637
0.504765875584169521062 121.59587227569276990 0.504765875584169521062 56.34040450642167741
0.635462587779429100010 135.00147616291252461 0.635462587779429100010 60.90117977705736507
0.800000000000011368684 149.46169650909996562 0.800000000000011368684 65.80265827219626829
1.007140329435344483500 165.05999906017282797 1.007140329435344483500 71.11808186241384533
1.267914553968893187630 181.88051242474165292 1.267914553968893187630 76.89863618263797207
1.596209851975103788391 200.02199190338333779 1.596209851975103788391 83.18300761628817952
2.009509145207672986544 219.57538786425007515 2.009509145207672986544 89.92774920696682273
2.529822128134725289783 240.60549262228013845 2.529822128134725289783 97.00600651008713271
3.184857364427998049905 263.12777653378549303 3.184857364427998049905 104.20033290091504341
4.009497869018190385759 287.08704745312240902 4.009497869018190385759 111.22353183568603185
5.009497869018204596614 311.49240927106740173 5.009497869018204596614 117.55130304363585481
6.009497869018190385759 332.19599385480211140 6.009497869018190385759 122.19888286932719268
7.009497869018190385759 350.12419175153502238 7.009497869018190385759 125.61104296062718788
8.009497869018204596614 365.87487761528353758 8.009497869018204596614 128.07354014335788861
9.009497869018190385759 379.86814558262113906 9.009497869018190385759 129.77728243533348973
10.009497869018190385759 392.41658405957139166 10.009497869018190385759 130.88243434143390687
11.009497869018204596614 403.75012378173749994 11.009497869018204596614 131.66494939474978310
12.009497869018190385759 414.04950198047703225 12.009497869018190385759 132.07449105331068040
13.009497869018190385759 423.45723708791200579 13.009497869018190385759 132.18282952880235825
14.009497869018204596614 432.08866137174169353 14.009497869018204596614 132.04306729905587758
15.009497869018190385759 440.03868060655651107 15.009497869018190385759 131.66176895298769978
16.009497869018190385759 447.38667759457365491 16.009497869018190385759 131.05300868957607463
17.009497869018190385759 454.19157131975663333 17.009497869018190385759 130.12545657485222250
18.009497869018204596614 460.50724794728540701 18.009497869018204596614 129.05215464946766701
19.009497869018190385759 466.37844010949766016 19.009497869018190385759 127.64196977953726275
20.009497869018190385759 471.84180124383641441 20.009497869018190385759 126.25418240113050672
21.009497869018204596614 476.92980924937711507 21.009497869018204596614 124.77256413900883558
22.009497869018190385759 481.67830543434865831 22.009497869018190385759 123.21956425033832261
23.009497869018190385759 486.12419200232574212 23.009497869018190385759 121.55694907022889595
24.009497869018204596614 490.29225860252478242 24.009497869018204596614 119.88934687009893310
25.009497869018190385759 494.20493382157866336 25.009497869018190385759 118.13153278213565045
26.009497869018190385759 497.88253961765786926 26.009497869018190385759 116.11015610941934995
27.009497869018204596614 501.34168492489845903 27.009497869018204596614 114.04382375584373221
28.009497869018190385759 504.58715834249011323 28.009497869018190385759 111.89371761039151920
29.009497869018190385759 507.62712001137390416 29.009497869018190385759 109.71489837848200466
30.009497869018190385759 510.47770969230674609 30.009497869018190385759 107.53146643309831632
31.009497869018190385759 513.14573441868401460 31.009497869018190385759 105.28876516224042348
32.009497869018190385759 515.65442493707428184 32.009497869018190385759 103.03693058636251578
33.009497869018190385759 518.02241875337278998 33.009497869018190385759 100.82283224822400314
34.009497869018190385759 520.25904088312358908 34.009497869018190385759 98.59032772330664329
35.009497869018190385759 522.37021685978959340 35.009497869018190385759 96.26825929055550546
36.009497869018190385759 524.36395052253476479 36.009497869018190385759 94.10763365782020173
37.009497869018190385759 526.24487632915872837 37.009497869018190385759 91.96189028415872713
38.009497869018190385759 528.01728882719078229 38.009497869018190385759 89.79741323569062672
39.009497869018190385759 529.68513163142790745 39.009497869018190385759 87.58903658409687409
40.009497869018190385759 531.25801484842270384 40.009497869018190385759 85.29343178971896577
41.009497869018190385759 532.74202995506072966 41.009497869018190385759 83.17180553003356636
42.009497869018190385759 534.14274865873528597 42.009497869018190385759 80.99565614605059238
43.009497869018190385759 535.46561202418376979 43.009497869018190385759 78.89144772755490465
44.009497869018190385759 536.71543548241015742 44.009497869018190385759 76.77093749618710206
46.009497869018190385759 539.01307895548950455 46.009497869018190385759 72.68052045698387076
48.009497869018190385759 541.06670806464535417 48.009497869018190385759 68.77056416308850828
50.009497869018218807469 542.90271256799906041 50.009497869018218807469 64.98530450745087705
52.009497869018190385759 544.54636263466909440 52.009497869018190385759 61.34415613891508912
54.009497869018190385759 546.01838603321925802 54.009497869018190385759 57.87654956246994686
56.009497869018190385759 547.33796365247383164 56.009497869018190385759 54.55265025986809491
58.009497869018190385759 548.52127140723018783 58.009497869018190385759 51.38669452142057992
60.009497869018190385759 549.58360796378917712 60.009497869018190385759 48.37469754928379473
62.009497869018190385759 550.53724823052323245 62.009497869018190385759 45.50512650032109718
64.009497869018190385759 551.39478609227103334 64.009497869018190385759 42.77736676824270745
66.009497869018218807469 552.16563142693246391 66.009497869018218807469 40.21642267920073266
68.009497869018190385759 552.85907868403819521 68.009497869018190385759 37.79550457168918598
70.009497869018190385759 553.48330764887782607 70.009497869018190385759 35.47349711890084478
72.009497869018190385759 554.04501879547979115 72.009497869018190385759 33.31262103905247329
74.009497869018218807469 554.55113860743870191 74.009497869018218807469 31.25355177123140038
76.009497869018190385759 555.00731862893974267 76.009497869018190385759 29.30639120572523737
78.009497869018190385759 555.41854899368183851 78.009497869018190385759 27.46168498051138229
80.009497869018218807469 555.78946989217331520 80.009497869018218807469 25.73026929837264731
82.009497869018190385759 556.12396009684778164 82.009497869018190385759 24.08545453073351084
84.009497869018190385759 556.42549942394236950 84.009497869018190385759 22.48142523602441045
86.009497869018218807469 556.69762711334942651 86.009497869018218807469 21.01264119111321449
88.009497869018190385759 556.94321098357545452 88.009497869018190385759 19.58105223298737840
91.009497869018190385759 557.26737104304766035 91.009497869018190385759 17.60040497852669361
94.009497869018190385759 557.54562897702317059 94.009497869018190385759 15.75814606598813938
97.009497869018190385759 557.78389880693760006 97.009497869018190385759 14.09361053835229605
99.504748934509137825444 557.95582442697093484 99.504748934509137825444 11.97801383445069412
nan nan nan nan

