Time Pressure difference Time.1 Pressure.1 difference.1
(hr) (psi) (hr) (psi)
0.000200000000006639311 0.58762489484930369 0.000200000000006639311 0.47101242567187873
0.000399999999999067768 1.09883407181427706 0.000399999999999067768 1.00402971939152197
0.000600000000019917934 1.56914166418912915 0.000600000000019917934 1.37831865990617941
0.000799999999998135536 2.01023280845842578 0.000799999999998135536 1.72568237776059763
0.001007140329448930061 2.44304299531931601 0.001007140329448930061 2.06215115368576685
0.001267914553963578328 2.95987866491188623 0.001267914553963578328 2.45687973847547436
0.001596209851982166583 3.57446316834524191 0.001596209851982166583 2.91473768209961159
0.002009509145210586212 4.30214293958445815 0.002009509145210586212 3.44296484789171453
0.002529822128153114136 5.15997432708195625 0.002529822128153114136 4.04918604944349436
0.003184857364431081805 6.16681356417472326 0.003184857364431081805 4.74144316014624945
0.004009497869020606231 7.34341818884329278 0.004009497869020606231 5.52826799998028839
0.005047658755856332391 8.71257029959608786 0.005047658755856332391 6.41880122526445085
0.006354625877790454069 10.29923233145700756 0.006354625877790454069 7.42295227800075086
0.007999999999995566213 12.13074341661348754 0.007999999999995566213 8.55158821019337978
0.010071403294347192059 14.23706133610853186 0.010071403294347192059 9.81675804768267568
0.012679145539706837553 16.65106110485733026 0.012679145539706837553 11.23201394750583049
0.015962098519764822413 19.40892327013751739 0.015962098519764822413 12.81290760608433033
0.020095091452077440408 22.55065889947771041 0.020095091452077440408 14.57756253315556272
0.025298221281346400247 26.12075829633616664 0.025298221281346400247 16.54679979895851716
0.031848573644282396344 30.16876952201105411 0.031848573644282396344 18.74294604790151908
0.040094978690177640601 34.74939224618856315 0.040094978690177640601 21.18670157128015319
0.050476587558421215363 39.92160624750439979 0.050476587558421215363 23.89241693364476760
0.063546258777947173257 45.74658044434629289 0.063546258777947173257 26.86363424503165831
0.079999999999998294697 52.28473622719217673 0.079999999999998294697 30.09115999124598417
0.100714032943528764008 59.59275413099410912 0.100714032943528764008 33.55407301433073286
0.126791455396883634421 67.72108237466713376 0.126791455396883634421 37.22523017166171400
0.159620985197506115583 76.71345262384683394 0.159620985197506115583 41.08049288810700261
0.200950914520774404082 86.60859923297458351 0.200950914520774404082 45.09997510973818180
0.252982212813464002465 97.44030288297444997 0.252982212813464002465 49.27743809681585674
0.318485736442795541734 109.24335926316487644 0.318485736442795541734 53.63351094446221623
0.400949786901833249431 122.05959533711899212 0.400949786901833249431 58.18516528874678073
0.504765875584169521062 135.92969033203269191 0.504765875584169521062 62.98185616347005578
0.635462587779429100010 150.91555745893796825 0.635462587779429100010 68.08025924746544888
0.800000000000011368684 167.08036007109981824 0.800000000000011368684 73.55952792282602104
1.007140329435344483500 184.51740292289517242 1.007140329435344483500 79.50153787003613104
1.267914553968893187630 203.32073177017474563 1.267914553968893187630 85.96350852734627779
1.596209851975103788391 223.60074326682851620 1.596209851975103788391 92.98868665979763648
2.009509145207672986544 245.45910908268484718 2.009509145207672986544 100.52850374924504706
2.529822128134725289783 268.96825930225753609 2.529822128134725289783 108.44115164836230747
3.184857364427998049905 294.14548793975490071 3.184857364427998049905 116.48355095148649241
4.009497869018190385759 320.92909675554346904 4.009497869018190385759 124.33465015803842846
5.009497869018204596614 348.21138201957734282 5.009497869018204596614 131.40834406467371309
6.009497869018190385759 371.35552160722255621 6.009497869018190385759 136.60378429365846387
7.009497869018190385759 391.39710971959675589 7.009497869018190385759 140.41817252817131134
8.009497869018204596614 409.00449895006534007 8.009497869018204596614 143.17095083575372882
9.009497869018190385759 424.64730446587049073 9.009497869018190385759 145.07553162307479511
10.009497869018190385759 438.67496284275262042 10.009497869018190385759 146.31095971413273560
11.009497869018204596614 451.34450923415420220 11.009497869018204596614 147.18571826379974254
12.009497869018190385759 462.85798631989746355 12.009497869018190385759 147.64353701853539746
13.009497869018190385759 473.37471271814274587 13.009497869018190385759 147.76464651961481422
14.009497869018204596614 483.02361615596026923 14.009497869018204596614 147.60840900715655266
15.009497869018190385759 491.91078997607121437 15.009497869018190385759 147.18216290903524168
16.009497869018190385759 500.12497468850352789 16.009497869018190385759 146.50164150198969537
17.009497869018190385759 507.73203469387362929 17.009497869018190385759 145.46474880685465791
18.009497869018204596614 514.79220830133624531 18.009497869018204596614 144.26492519755063881
19.009497869018190385759 521.35550126147825267 19.009497869018190385759 142.68850661447609696
20.009497869018190385759 527.46288774807669597 20.009497869018190385759 141.13712575702538743
21.009497869018204596614 533.15067418076068861 21.009497869018204596614 139.48085315671977469
22.009497869018190385759 538.45892686965601115 22.009497869018190385759 137.74478440700070792
23.009497869018190385759 543.42889807942117386 23.009497869018190385759 135.88617882817638360
24.009497869018204596614 548.08829968282236678 24.009497869018204596614 134.02199835544834627
25.009497869018190385759 552.46220416610901793 25.009497869018190385759 132.05697174585762355
26.009497869018190385759 556.57332905603072959 26.009497869018190385759 129.79731358456945145
27.009497869018204596614 560.44024116107846112 27.009497869018204596614 127.48740033103591429
28.009497869018190385759 564.06829356432001532 28.009497869018190385759 125.08383796446416625
29.009497869018190385759 567.46660833059547713 29.009497869018190385759 122.64817778998516928
30.009497869018190385759 570.65322778848599228 30.009497869018190385759 120.20736115170196001
31.009497869018190385759 573.63576138989321862 31.009497869018190385759 117.70028847275618489
32.009497869018190385759 576.44017834025260072 32.009497869018190385759 115.18300584753637850
33.009497869018190385759 579.08731314946578550 33.009497869018190385759 112.70790783774975807
34.009497869018190385759 581.58759007331957491 34.009497869018190385759 110.21223390525936736
35.009497869018190385759 583.94763315187071839 35.009497869018190385759 107.61643820030309371
36.009497869018190385759 586.17638972320446555 36.009497869018190385759 105.20111630092748101
37.009497869018190385759 588.27904055868873456 37.009497869018190385759 102.80243099315228505
38.009497869018190385759 590.26038645052835818 38.009497869018190385759 100.38280367009653560
39.009497869018190385759 592.12483588996701656 39.009497869018190385759 97.91410182381162031
40.009497869018190385759 593.88313183055470290 40.009497869018190385759 95.34788931195073758
41.009497869018190385759 595.54208381731291411 41.009497869018190385759 92.97616406271302480
42.009497869018190385759 597.10792035493045660 42.009497869018190385759 90.54348845995589556
43.009497869018190385759 598.58672390518029260 43.009497869018190385759 88.19123428086932392
44.009497869018190385759 599.98387754589953147 44.009497869018190385759 85.82075661825419388
46.009497869018190385759 602.55236905752724397 46.009497869018190385759 81.24815796780714550
48.009497869018190385759 604.84808159809347217 48.009497869018190385759 76.87729291873736770
50.009497869018218807469 606.90051577137899130 50.009497869018218807469 72.64582384673978765
52.009497869018190385759 608.73792061412018484 52.009497869018190385759 68.57545401489316816
54.009497869018190385759 610.38346730071134516 54.009497869018190385759 64.69908321950282470
56.009497869018190385759 611.85859777839459639 56.009497869018190385759 60.98336002560088787
58.009497869018190385759 613.18139479165859029 58.009497869018190385759 57.44419890871386514
60.009497869018190385759 614.36896042574585408 60.009497869018190385759 54.07714533986162309
62.009497869018190385759 615.43501656498222019 62.009497869018190385759 50.86930697519338906
64.009497869018190385759 616.39364167136000106 64.009497869018190385759 47.81999675814151374
66.009497869018218807469 617.25535486666365159 66.009497869018218807469 44.95716654469591589
68.009497869018190385759 618.03054623752086627 68.009497869018190385759 42.25086868676248741
70.009497869018190385759 618.72835980881177420 70.009497869018190385759 39.65514115013550622
72.009497869018190385759 619.35628591176816826 72.009497869018190385759 37.23953928074210040
74.009497869018218807469 619.92206752937522651 74.009497869018218807469 34.93774529128384643
76.009497869018190385759 620.43202241433789368 76.009497869018190385759 32.76105189090343828
78.009497869018190385759 620.89172894128137159 78.009497869018190385759 30.69889022986967930
80.009497869018218807469 621.30637429005867034 80.009497869018218807469 28.76337389116094911
82.009497869018190385759 621.68029446588025166 82.009497869018190385759 26.92466705157494644
84.009497869018190385759 622.01737948848654014 84.009497869018190385759 25.13155350888026973
86.009497869018218807469 622.32158580618136057 86.009497869018218807469 23.48962803350934081
88.009497869018190385759 622.59611929819561738 88.009497869018190385759 21.88928223131304307
91.009497869018190385759 622.95849160308898718 91.009497869018190385759 19.67515470447222370
94.009497869018190385759 623.26955080345362603 94.009497869018190385759 17.61572884727680588
97.009497869018190385759 623.53590807027194387 97.009497869018190385759 15.75497654883355914
99.504748934509137825444 623.72810041902448575 99.504748934509137825444 13.38999162420713240
nan nan nan nan

