Time Pressure difference Time.1 Pressure.1 difference.1
(hr) (psi) (hr) (psi)
0.000200000000006639311 0.45533966970550310 0.000200000000006639311 0.36497882273626625
0.000399999999999067768 0.85146621204566020 0.000399999999999067768 0.77800407166120300
0.000600000000019917934 1.21589887248778483 0.000600000000019917934 1.06803365352919588
0.000799999999998135536 1.55769224731257161 0.000799999999998135536 1.33719937802776179
0.001007140329448930061 1.89306886130193441 0.001007140329448930061 1.59792281340105635
0.001267914553963578328 2.29355526878243321 0.001267914553963578328 1.90379069782341293
0.001596209851982166583 2.76978544087415646 0.001596209851982166583 2.25857635556059932
0.002009509145210586212 3.33365104560217507 0.002009509145210586212 2.66788982289239529
0.002529822128153114136 3.99836873212274746 0.002529822128153114136 3.13763942693844200
0.003184857364431081805 4.77854984712117137 0.003184857364431081805 3.67405666674839670
0.004009497869020606231 5.69027902310842926 0.004009497869020606231 4.28375269192785435
0.005047658755856332391 6.75120968712777270 0.005047658755856332391 4.97381042810776197
0.006354625877790454069 7.98068476868825005 0.006354625877790454069 5.75190851873517861
0.007999999999995566213 9.39988885600144641 0.007999999999995566213 6.62646764154795154
0.010071403294347192059 11.03203567987556788 0.010071403294347192059 7.60682436396264183
0.012679145539706837553 12.90259948172594306 0.012679145539706837553 8.70348000197726712
0.015962098519764822413 15.03961589889802752 0.015962098519764822413 9.92848527770041756
0.020095091452077440408 17.47408876807870115 0.020095091452077440408 11.29588376384329074
0.025298221281346400247 20.24049280308513232 0.025298221281346400247 12.82180932288965813
0.031848573644282396344 23.37722188080003605 0.031848573644282396344 14.52356245891894915
0.040094978690177640601 26.92666176422668300 0.040094978690177640601 16.41718344504409899
0.050476587558421215363 30.93451479368231816 0.050476587558421215363 18.51379226848777293
0.063546258777947173257 35.44817963341525768 0.063546258777947173257 20.81613364484680417
0.079999999999998294697 40.51447570211336568 0.079999999999998294697 23.31708368989913893
0.100714032943528764008 46.17732369866131137 0.100714032943528764008 26.00043098503827110
0.126791455396883634421 52.47581501544112115 0.126791455396883634421 28.84514281074260822
0.159620985197506115583 59.44383651184340067 0.159620985197506115583 31.83251463130565995
0.200950914520774404082 67.11140272318172606 0.200950914520774404082 34.94713711110043874
0.252982212813464002465 75.50468967472191650 0.252982212813464002465 38.18417596601607755
0.318485736442795541734 84.65065990297372878 0.318485736442795541734 41.55961630056669520
0.400949786901833249431 94.58172434890498437 0.400949786901833249431 45.08660912184880232
0.504765875584169521062 105.32940459377888942 0.504765875584169521062 48.80347622145665554
0.635462587779429100010 116.94167604045667019 0.635462587779429100010 52.75413453535830399
0.800000000000011368684 129.46748280390909258 0.800000000000011368684 56.99991855631305526
1.007140329435344483500 142.97912501371260419 1.007140329435344483500 61.60427223578628997
1.267914553968893187630 157.54947698778946119 1.267914553968893187630 66.61153385886784406
1.596209851975103788391 173.26408305273204746 1.596209851975103788391 72.05521454444034646
2.009509145207672986544 190.20172670625106548 2.009509145207672986544 77.89767944550504808
2.529822128134725289783 208.41853268208109284 2.529822128134725289783 84.02904404979732078
3.184857364427998049905 227.92790179217973900 3.184857364427998049905 90.26095061880589299
4.009497869018190385759 248.68202521104907987 4.009497869018190385759 96.34462227885914842
5.009497869018204596614 269.82256379242136290 5.009497869018204596614 101.82589694110973255
6.009497869018190385759 287.75652977621268747 6.009497869018190385759 105.85174754508608430
7.009497869018190385759 303.28638596755479284 7.009497869018190385759 108.80744648509957528
8.009497869018204596614 316.93002643760985393 8.009497869018204596614 110.94052351490869057
9.009497869018190385759 329.05134729938305327 9.009497869018190385759 112.41634796385179129
10.009497869018190385759 339.92112049663535345 10.009497869018190385759 113.37365835668580871
11.009497869018204596614 349.73851781888254209 11.009497869018204596614 114.05149258829980852
12.009497869018190385759 358.66009840428074540 12.009497869018190385759 114.40624787929164086
13.009497869018190385759 366.80931530529073825 13.009497869018190385759 114.50009339316123658
14.009497869018204596614 374.28607223459476927 14.009497869018204596614 114.37902783255968586
15.009497869018190385759 381.17257896250060867 15.009497869018190385759 114.04873760960786910
16.009497869018190385759 387.53759887000154549 16.009497869018190385759 113.52141414964603428
17.009497869018190385759 393.43216906373623942 17.009497869018190385759 112.71794516550112064
18.009497869018204596614 398.90296709605917158 18.009497869018204596614 111.78822402748591003
19.009497869018190385759 403.98874149882311713 19.009497869018190385759 110.56668640505611734
20.009497869018190385759 408.72124240194568756 20.009497869018190385759 109.36455005342962465
21.009497869018204596614 413.12860297893070083 21.009497869018204596614 108.08113502902220660
22.009497869018190385759 417.24186987293251150 22.009497869018190385759 106.73588744333940781
23.009497869018190385759 421.09300870135240302 23.009497869018190385759 105.29568833368170999
24.009497869018204596614 424.70349288218704942 24.009497869018204596614 103.85116934178105907
25.009497869018190385759 428.09275062160583047 25.009497869018190385759 102.32850654240624522
26.009497869018190385759 431.27838531118976562 26.009497869018190385759 100.57753919941755782
27.009497869018204596614 434.27478402766041654 27.009497869018204596614 98.78763011433350982
28.009497869018190385759 437.08609477614373873 28.009497869018190385759 96.92515406251133925
29.009497869018190385759 439.71938607607756921 29.009497869018190385759 95.03780601261884442
30.009497869018190385759 442.18863859439557018 30.009497869018190385759 93.14646231423350287
31.009497869018190385759 444.49974875472764779 31.009497869018190385759 91.20377803457647303
32.009497869018190385759 446.67283961436635309 32.009497869018190385759 89.25318225626634216
33.009497869018190385759 448.72405544994143156 33.009497869018190385759 87.33527455673973350
34.009497869018190385759 450.66147382458643733 34.009497869018190385759 85.40142295502324998
35.009497869018190385759 452.49022758450649917 35.009497869018190385759 83.38998884241495091
36.009497869018190385759 454.21724985660637230 36.009497869018190385759 81.51840054597936103
37.009497869018190385759 455.84655512486068574 37.009497869018190385759 79.65970363687392819
38.009497869018190385759 457.38186343441418558 38.009497869018190385759 77.78477914720750164
39.009497869018190385759 458.82659084364746604 39.009497869018190385759 75.87182771655544400
40.009497869018190385759 460.18906186869992325 40.009497869018190385759 73.88331707347842325
41.009497869018190385759 461.47455310014538554 41.009497869018190385759 72.04551101541980529
42.009497869018190385759 462.68789089114284252 42.009497869018190385759 70.16047565498951144
43.009497869018190385759 463.83378842889561611 43.009497869018190385759 68.33775736929922573
44.009497869018190385759 464.91641696092216307 44.009497869018190385759 66.50091804305479570
46.009497869018190385759 466.90669355879481373 46.009497869018190385759 62.95769586604960466
48.009497869018190385759 468.68559877387815504 48.009497869018190385759 59.57079332802634752
50.009497869018218807469 470.27599207877000254 50.009497869018218807469 56.29190615612300519
52.009497869018190385759 471.69976312989882672 52.009497869018190385759 53.13785180774896588
54.009497869018190385759 472.97486684202044671 54.009497869018190385759 50.13412372696072339
56.009497869018190385759 474.11791818373239948 56.009497869018190385759 47.25487850324998362
58.009497869018190385759 475.14292913950805541 58.009497869018190385759 44.51244796954841831
60.009497869018190385759 476.06315179909688595 60.009497869018190385759 41.90338039368423750
62.009497869018190385759 476.88921899703598228 62.009497869018190385759 39.41768573670198350
64.009497869018190385759 477.63203987330501832 64.009497869018190385759 37.05483161116652724
66.009497869018218807469 478.29976550094551158 66.009497869018218807469 34.83647739363878060
68.009497869018190385759 478.90044696604104502 68.009497869018190385759 32.73941720514533671
70.009497869018190385759 479.44116980445841136 70.009497869018190385759 30.72803591491543429
72.009497869018190385759 479.92773813542225980 72.009497869018190385759 28.85623067488783633
74.009497869018218807469 480.36615185333096179 74.009497869018218807469 27.07261305746401803
76.009497869018190385759 480.76130646798225143 76.009497869018190385759 25.38593357423086516
78.009497869018190385759 481.11752455876541035 78.009497869018190385759 23.78800261888005707
80.009497869018218807469 481.43882557547198076 80.009497869018218807469 22.28820678296120761
82.009497869018190385759 481.72856940839534445 82.009497869018190385759 20.86342683854266866
84.009497869018190385759 481.98977036193150525 84.009497869018190385759 19.47397629716551748
86.009497869018218807469 482.22549421474246856 86.009497869018218807469 18.20167859468614679
88.009497869018190385759 482.43822514338853580 88.009497869018190385759 16.96160021241555782
91.009497869018190385759 482.71902074457369736 91.009497869018190385759 15.24591371649861671
94.009497869018190385759 482.96005476950080038 94.009497869018190385759 13.65010268497515433
97.009497869018190385759 483.16645009236714259 97.009497869018190385759 12.20824012196344555
99.504748934509137825444 483.31537639104499249 99.504748934509137825444 10.37565701686192554
nan nan nan nan

