Time Pressure difference Time.1 Pressure.1 difference.1
(hr) (psi) (hr) (psi)
0.000200000000006639311 0.29590116150586976 0.000200000000006639311 0.23718042761913324
0.000399999999999067768 0.55332284421927458 0.000399999999999067768 0.50558368571255552
0.000600000000019917934 0.79014834985826998 0.000600000000019917934 0.69405856689588419
0.000799999999998135536 1.01226178151046309 0.000799999999998135536 0.86897513098134360
0.001007140329448930061 1.23020529977572179 0.001007140329448930061 1.03840549800527371
0.001267914553963578328 1.49046022818430290 0.001267914553963578328 1.23717285409013833
0.001596209851982166583 1.79993702197479588 0.001596209851982166583 1.46772928304779016
0.002009509145210586212 2.16636344706563344 0.002009509145210586212 1.73372045065637281
0.002529822128153114136 2.59832830451401797 0.002529822128153114136 2.03898586612972155
0.003184857364431081805 3.10532673551452332 0.003184857364431081805 2.38757505102151191
0.004009497869020606231 3.69781129177535517 0.004009497869020606231 2.78378424169623528
0.005047658755856332391 4.38725400157385881 0.005047658755856332391 3.23221625679785740
0.006354625877790454069 5.18622481145643199 0.006354625877790454069 3.73786104046246326
0.007999999999995566213 6.10849046452693401 0.007999999999995566213 4.30619074565425031
0.010071403294347192059 7.16913633631057490 0.010071403294347192059 4.94327271358428533
0.012679145539706837553 8.38471678858337199 0.012679145539706837553 5.65593119394547195
0.015962098519764822413 9.77345069882517059 0.015962098519764822413 6.45199731349033190
0.020095091452077440408 11.35548582023462849 0.020095091452077440408 7.34059724714586981
0.025298221281346400247 13.15322544542994088 0.025298221281346400247 8.33221553857508290
0.031848573644282396344 15.19161972376148917 0.031848573644282396344 9.43809487009258952
0.040094978690177640601 17.49821292017788821 0.040094978690177640601 10.66865896658064550
0.050476587558421215363 20.10270456775991832 0.050476587558421215363 12.03113411943012601
0.063546258777947173257 23.03589655076679321 0.063546258777947173257 13.52730397409769481
0.079999999999998294697 26.32821433241312192 0.079999999999998294697 15.15253909511794106
0.100714032943528764008 30.00819965127072919 0.100714032943528764008 16.89630453920683095
0.126791455396883634421 34.10125593511082087 0.126791455396883634421 18.74493225468747326
0.159620985197506115583 38.62940446106031800 0.159620985197506115583 20.68626715337141420
0.200950914520774404082 43.61215008769454471 0.200950914520774404082 22.71029552326863410
0.252982212813464002465 49.06650322898595107 0.252982212813464002465 24.81387581889424254
0.318485736442795541734 55.00998541095388106 0.318485736442795541734 27.00739591397682560
0.400949786901833249431 61.46365878942602734 0.400949786901833249431 29.29940195227177924
0.504765875584169521062 68.44800757240983557 0.504765875584169521062 31.71479723871419054
0.635462587779429100010 75.99420843607659037 0.635462587779429100010 34.28212106655547586
0.800000000000011368684 84.13406757134764291 0.800000000000011368684 37.04123147772637026
1.007140329435344483500 92.91456900738205604 1.007140329435344483500 40.03335733976938116
1.267914553968893187630 102.38306990796715468 1.267914553968893187630 43.28731175843859091
1.596209851975103788391 112.59516100521578608 1.596209851975103788391 46.82487183698341227
2.009509145207672986544 123.60203952623346879 2.009509145207672986544 50.62158067941841466
2.529822128134725289783 135.44017796618419425 2.529822128134725289783 54.60603015468480947
3.184857364427998049905 148.11828480378653694 3.184857364427998049905 58.65581653362767156
4.009497869018190385759 161.60529161268479470 4.009497869018190385759 62.60927288763783594
5.009497869018204596614 175.34340919232272427 5.009497869018204596614 66.17126330270892254
6.009497869018190385759 186.99774488515350868 6.009497869018190385759 68.78745062180669834
7.009497869018190385759 197.08977681377797353 7.009497869018190385759 70.70820299108152085
8.009497869018204596614 205.95605693575564032 8.009497869018204596614 72.09437690189020032
9.009497869018190385759 213.83306208293240047 9.009497869018190385759 73.05343713247249582
10.009497869018190385759 220.89675261631498415 10.009497869018190385759 73.67554251007868515
11.009497869018204596614 227.27655974468666500 11.009497869018204596614 74.11603111624987150
12.009497869018190385759 233.07422296914268145 12.009497869018190385759 74.34656781146628646
13.009497869018190385759 238.36996789716903322 13.009497869018190385759 74.40755304601456999
14.009497869018204596614 243.22871666621219333 14.009497869018204596614 74.32887894317715904
15.009497869018190385759 247.70389305667092117 15.009497869018190385759 74.11424080135068948
16.009497869018190385759 251.84018275191229463 16.009497869018190385759 73.77156118287395259
17.009497869018190385759 255.67075206741267834 17.009497869018190385759 73.24942919776448491
18.009497869018204596614 259.22593427496195773 18.009497869018204596614 72.64525261725000860
19.009497869018190385759 262.53090999541257133 19.009497869018190385759 71.85143994212363339
20.009497869018190385759 265.60631195845098773 20.009497869018190385759 71.07023512646419761
21.009497869018204596614 268.47042242514606869 21.009497869018204596614 70.23621160142880626
22.009497869018190385759 271.14341696635523249 22.009497869018190385759 69.36200636608447212
23.009497869018190385759 273.64606834568007798 23.009497869018190385759 68.42609715873811638
24.009497869018204596614 275.99233100142123476 24.009497869018204596614 67.48738068846628835
25.009497869018190385759 278.19483029691508591 25.009497869018190385759 66.49788269193066981
26.009497869018190385759 280.26500574503916141 26.009497869018190385759 65.36002165099763772
27.009497869018204596614 282.21220674580376908 27.009497869018204596614 64.19685443209746722
28.009497869018190385759 284.03912886828913997 28.009497869018190385759 62.98652978068397346
29.009497869018190385759 285.75036556931644327 29.009497869018190385759 61.76004213358258710
30.009497869018190385759 287.35500214467600699 30.009497869018190385759 60.53095792591627600
31.009497869018190385759 288.85687036813340001 31.009497869018190385759 59.26851019066513970
32.009497869018190385759 290.26904715000870283 32.009497869018190385759 58.00092119099876697
33.009497869018190385759 291.60202380156744084 33.009497869018190385759 56.75457444436450771
34.009497869018190385759 292.86104950374505052 34.009497869018190385759 55.49786659921235099
35.009497869018190385759 294.04945982173586572 35.009497869018190385759 54.19074198474978488
36.009497869018190385759 295.17176022791699097 36.009497869018190385759 52.97449576764713441
37.009497869018190385759 296.23055952303639060 37.009497869018190385759 51.76662698114895278
38.009497869018190385759 297.22827516762390587 38.009497869018190385759 50.54821274856756474
39.009497869018190385759 298.16712707729379872 39.009497869018190385759 49.30508681886248468
40.009497869018190385759 299.05252491467501841 40.009497869018190385759 48.01285895447756502
41.009497869018190385759 299.88789765682230382 41.009497869018190385759 46.81856602684008095
42.009497869018190385759 300.67638169531448966 42.009497869018190385759 45.59358127426688867
43.009497869018190385759 301.42103988116303981 43.009497869018190385759 44.40909309166998042
44.009497869018190385759 302.12458288744943502 44.009497869018190385759 43.21542839189340413
46.009497869018190385759 303.41795835242783141 46.009497869018190385759 40.91287575393131704
48.009497869018190385759 304.57397473837647794 48.009497869018190385759 38.71190697922201451
50.009497869018218807469 305.60748720715173476 50.009497869018218807469 36.58113167637962704
52.009497869018190385759 306.53272068838992936 52.009497869018190385759 34.53147862124359335
54.009497869018190385759 307.36134313128241047 54.009497869018190385759 32.57951465437049876
56.009497869018190385759 308.10415172490252189 56.009497869018190385759 30.70844551052177351
58.009497869018190385759 308.77025211665278448 58.009497869018190385759 28.92628499550164989
60.009497869018190385759 309.36825613855688744 60.009497869018190385759 27.23079001118624021
62.009497869018190385759 309.90507350724811886 62.009497869018190385759 25.61546855978339821
64.009497869018190385759 310.38779349564924814 64.009497869018190385759 24.07997467086510213
66.009497869018218807469 310.82171305489578117 66.009497869018218807469 22.63838362736464660
68.009497869018190385759 311.21206415988905292 68.009497869018190385759 21.27561515624888244
70.009497869018190385759 311.56345132552723953 70.009497869018190385759 19.96852486825544304
72.009497869018190385759 311.87964634182640111 72.009497869018190385759 18.75213767098980000
74.009497869018218807469 312.16454822273038872 74.009497869018218807469 17.59305894407065551
76.009497869018190385759 312.42133830105882453 76.009497869018190385759 16.49697518203076285
78.009497869018190385759 312.65282559246986693 78.009497869018190385759 15.45856439300309582
80.009497869018218807469 312.86162212473328736 80.009497869018218807469 14.48392642623625903
82.009497869018190385759 313.04991131279513183 82.009497869018190385759 13.55803731862482486
84.009497869018190385759 313.21965199360994347 84.009497869018190385759 12.65510692094089507
86.009497869018218807469 313.37283645453447889 86.009497869018218807469 11.82830795526240486
88.009497869018190385759 313.51107903048949765 88.009497869018190385759 11.02244662121806229
91.009497869018190385759 313.69355323615263842 91.009497869018190385759 9.90751273625674678
94.009497869018190385759 313.85018849699974908 94.009497869018190385759 8.87047957356948125
97.009497869018190385759 313.98431389794501456 97.009497869018190385759 7.93348937589367509
99.504748934509137825444 314.08109322048034073 99.504748934509137825444 6.74259056906164922
nan nan nan nan

