Time Pressure difference Time.1 Pressure.1 difference.1
(hr) (psi) (hr) (psi)
0.000200000000006639311 0.71225150169530527 0.000200000000006639311 0.57090724106911361
0.000399999999999067768 1.33188063443839511 0.000399999999999067768 1.21696967172692760
0.000600000000019917934 1.90193355742355363 0.000600000000019917934 1.67063979749291658
0.000799999999998135536 2.43657365290636241 0.000799999999998135536 2.09167425645626937
0.001007140329448930061 2.96117652157779609 0.001007140329448930061 2.49950311637504674
0.001267914553963578328 3.58762544337068690 0.001267914553963578328 2.97794783466873270
0.001596209851982166583 4.33255429054168584 0.001596209851982166583 3.53291072131268091
0.002009509145210586212 5.21456425023092507 0.002009509145210586212 4.17316710828581083
0.002529822128153114136 6.25432907180668352 0.002529822128153114136 4.90795892011930590
0.003184857364431081805 7.47470411866201623 0.003184857364431081805 5.74703359340001541
0.004009497869020606231 8.90084929761456145 0.004009497869020606231 6.70073242177705541
0.005047658755856332391 10.56037845555307797 0.005047658755856332391 7.78013466048049107
0.006354625877790454069 12.48354819322336340 0.006354625877790454069 8.99725139857200062
0.007999999999995566213 14.70349587108483114 0.007999999999995566213 10.36525443012775760
0.010071403294347192059 17.25653287540168890 0.010071403294347192059 11.89874820234523334
0.012679145539706837553 20.18250652875480000 0.012679145539706837553 13.61415908566168831
0.015962098519764822413 23.52527074093682202 0.015962098519764822413 15.53033706282496418
0.020095091452077440408 27.33332233905888486 0.020095091452077440408 17.66924937371817350
0.025298221281346400247 31.66058736629371850 0.025298221281346400247 20.05613293167602507
0.031848573644282396344 36.56712229978354145 0.031848573644282396344 22.71804953436404517
0.040094978690177640601 42.11922780551054757 0.040094978690177640601 25.68008970073411845
0.050476587558421215363 48.38839240663151742 0.050476587558421215363 28.95964753924004498
0.063546258777947173257 55.44875805043394479 0.063546258777947173257 32.56101638941633780
0.079999999999998294697 63.37356061660852902 0.079999999999998294697 36.47305292777800645
0.100714032943528764008 72.23150174882343322 0.100714032943528764008 40.67039892613784247
0.126791455396883634421 82.08372899204321982 0.126791455396883634421 45.12015458010655777
0.159620985197506115583 92.98324885568165143 0.159620985197506115583 49.79306187740930767
0.200950914520774404082 104.97701068167417304 0.200950914520774404082 54.66501722424426646
0.252982212813464002465 118.10595953706499017 0.252982212813464002465 59.72845873583248988
0.318485736442795541734 132.41227076566073606 0.318485736442795541734 65.00839063529009820
0.400949786901833249431 147.94664221548899263 0.400949786901833249431 70.52538399335065833
0.504765875584169521062 164.75838058017708931 0.504765875584169521062 76.33938252989321427
0.635462587779429100010 182.92252995319140041 0.635462587779429100010 82.51908200255587644
0.800000000000011368684 202.51564970703211088 0.800000000000011368684 89.16042306285665120
1.007140329435344483500 223.65083316365138444 1.007140329435344483500 96.36264602019781478
1.267914553968893187630 246.44207180200092466 1.267914553968893187630 104.19510571501805885
1.596209851975103788391 271.02317578431944867 1.596209851975103788391 112.71022091584477209
2.009509145207672986544 297.51737984785142999 2.009509145207672986544 121.84912243540009058
2.529822128134725289783 326.01247543389746397 2.529822128134725289783 131.43992670174719706
3.184857364427998049905 356.52942436299673545 3.184857364427998049905 141.18800073859085842
4.009497869018190385759 388.99344310535661862 4.009497869018190385759 150.70420273894939101
5.009497869018204596614 422.06190024410852857 5.009497869018204596614 159.27812319687348008
6.009497869018190385759 450.11457180591071392 6.009497869018190385759 165.57543996731354241
7.009497869018190385759 474.40668630704681163 7.009497869018190385759 170.19880390559154648
8.009497869018204596614 495.74834410653653549 8.009497869018204596614 173.53540604854981666
9.009497869018190385759 514.70875884903489350 9.009497869018190385759 175.84392043886910528
10.009497869018190385759 531.71147747409463591 10.009497869018190385759 177.34136467720117025
11.009497869018204596614 547.06804851485753716 11.009497869018204596614 178.40164666334970889
12.009497869018190385759 561.02336493513644200 12.009497869018190385759 178.95656204971766101
13.009497869018190385759 573.77053449130335139 13.009497869018190385759 179.10335709664212800
14.009497869018204596614 585.46582858714145914 14.009497869018204596614 178.91398390322410705
15.009497869018190385759 596.23784140464545089 15.009497869018190385759 178.39733727007470065
16.009497869018190385759 606.19413401225017424 16.009497869018190385759 177.57248727077660533
17.009497869018190385759 615.41453968226619509 17.009497869018190385759 176.31568486897194248
18.009497869018204596614 623.97207238420264730 18.009497869018204596614 174.86139629987474109
19.009497869018190385759 631.92734335366367304 19.009497869018190385759 172.95064249598229367
20.009497869018190385759 639.33001678469486251 20.009497869018190385759 171.07023655146559804
21.009497869018204596614 646.22409915511627787 21.009497869018204596614 169.06269286649805395
22.009497869018190385759 652.65815425077971668 22.009497869018190385759 166.95842944118686546
23.009497869018190385759 658.68218333560173505 23.009497869018190385759 164.70564092562139535
24.009497869018204596614 664.32977556342098069 24.009497869018204596614 162.44609516306118735
25.009497869018190385759 669.63132092645685134 25.009497869018190385759 160.06431527963547978
26.009497869018190385759 674.61435500511788632 26.009497869018190385759 157.32541682110726811
27.009497869018204596614 679.30138235519348200 27.009497869018204596614 154.52560490361344137
28.009497869018190385759 683.69889137002303414 28.009497869018190385759 151.61228227209340957
29.009497869018190385759 687.81793877037819129 29.009497869018190385759 148.66005435918822286
30.009497869018190385759 691.68039339765539353 30.009497869018190385759 145.70157637226432712
31.009497869018190385759 695.29547855670705303 31.009497869018190385759 142.66279041188340670
32.009497869018190385759 698.69467113990333473 32.009497869018190385759 139.61162912562761562
33.009497869018190385759 701.90322435059658801 33.009497869018190385759 136.61159919196444434
34.009497869018190385759 704.93377327607322513 34.009497869018190385759 133.58662948469233811
35.009497869018190385759 707.79434681796658424 35.009497869018190385759 130.44030364799772315
36.009497869018190385759 710.49578991331543421 36.009497869018190385759 127.51272745953650656
37.009497869018190385759 713.04438209897944034 37.009497869018190385759 124.60531623933032108
38.009497869018190385759 715.44594234465705540 38.009497869018190385759 121.67252151008148076
39.009497869018190385759 717.70581411781552106 39.009497869018190385759 118.68024427222663064
40.009497869018190385759 719.83701879461784756 40.009497869018190385759 115.56977578924835370
41.009497869018190385759 721.84781012453925086 41.009497869018190385759 112.69504245989979552
42.009497869018190385759 723.74573758660415024 42.009497869018190385759 109.74643210252946801
43.009497869018190385759 725.53817364336418905 43.009497869018190385759 106.89529937124326864
44.009497869018190385759 727.23164304437830197 44.009497869018190385759 104.02207822331047282
46.009497869018190385759 730.34487386949103893 46.009497869018190385759 98.47969857946291938
48.009497869018190385759 733.12747331143327756 48.009497869018190385759 93.18183726998616123
50.009497869018218807469 735.61519861862643666 50.009497869018218807469 88.05293577632086510
52.009497869018190385759 737.84229003346558784 52.009497869018190385759 83.11930030478164610
54.009497869018190385759 739.83683299600443206 54.009497869018190385759 78.42080821510829480
56.009497869018190385759 741.62481697547127624 56.009497869018190385759 73.91703472297359667
58.009497869018190385759 743.22815980079008114 58.009497869018190385759 69.62726953034866995
60.009497869018190385759 744.66759065822043340 60.009497869018190385759 65.54611336810241085
62.009497869018190385759 745.95974164215260771 62.009497869018190385759 61.65793961566686932
64.009497869018190385759 747.12167704952753411 64.009497869018190385759 57.96191550187057828
66.009497869018218807469 748.16614695331384155 66.009497869018218807469 54.49192106069185115
68.009497869018190385759 749.10574502486235815 68.009497869018190385759 51.21165718786495802
70.009497869018190385759 749.95155460238686373 70.009497869018190385759 48.06541397700074469
72.009497869018190385759 750.71265460632571376 72.009497869018190385759 45.13749844099427122
74.009497869018218807469 751.39843019259569701 74.009497869018218807469 42.34752776419831122
76.009497869018190385759 752.01653901643101108 76.009497869018190385759 39.70918967345286887
78.009497869018190385759 752.57374254375690725 78.009497869018190385759 37.20967382127568612
80.009497869018218807469 753.07632807906395556 80.009497869018218807469 34.86366290362281006
82.009497869018190385759 753.52955123056335651 82.009497869018190385759 32.63499335753692776
84.009497869018190385759 753.93812703403045816 84.009497869018190385759 30.46158677675890303
86.009497869018218807469 754.30685104232645699 86.009497869018218807469 28.47143303113750790
88.009497869018190385759 754.63960905456644923 88.009497869018190385759 26.53167739648488777
91.009497869018190385759 755.07883520137443156 91.009497869018190385759 23.84796595103683003
94.009497869018190385759 755.45586548807239069 94.009497869018190385759 21.35176612649783578
97.009497869018190385759 755.77871321787711167 97.009497869018190385759 19.09637560362171982
99.504748934509137825444 756.01166674012085878 99.504748934509137825444 16.22981212270603990
nan nan nan nan

