Time Pressure difference Time.1 Pressure.1 difference.1
(hr) (psi) (hr) (psi)
0.000200000000006639311 0.54097694703543708 0.000200000000006639311 0.43362162884721539
0.000399999999999067768 1.01160435284323857 0.000399999999999067768 0.92432593834977794
0.000600000000019917934 1.44457710079970769 0.000600000000019917934 1.26890236818376945
0.000799999999998135536 1.85065271584383506 0.000799999999998135536 1.58869100417059772
0.001007140329448930061 2.24910474806055483 0.001007140329448930061 1.89844958105905293
0.001267914553963578328 2.72491199364518444 0.001267914553963578328 2.26184307677185270
0.001596209851982166583 3.29070839076333277 0.001596209851982166583 2.68335447747795985
0.002009509145210586212 3.96062211381175899 0.002009509145210586212 3.16964891802353366
0.002529822128153114136 4.75035551201739281 0.002529822128153114136 3.72774592466539678
0.003184857364431081805 5.67726793763478632 0.003184857364431081805 4.36504897563226990
0.004009497869020606231 6.76046911461047273 0.004009497869020606231 5.08941260187758804
0.005047658755856332391 8.02093260993620660 0.005047658755856332391 5.90925183889867167
0.006354625877790454069 9.48163924353328902 0.006354625877790454069 6.83368947868078624
0.007999999999995566213 11.16775786102924251 0.007999999999995566213 7.87272990440788778
0.010071403294347192059 13.10686807838427548 0.010071403294347192059 9.03746564342350567
0.012679145539706837553 15.32923516406889419 0.012679145539706837553 10.34037302987207418
0.015962098519764822413 17.86816751291095784 0.015962098519764822413 11.79576920607526702
0.020095091452077440408 20.76049995840542906 0.020095091452077440408 13.42033896713491892
0.025298221281346400247 24.04719099082132772 0.025298221281346400247 15.23325052581844652
0.031848573644282396344 27.77385535379453785 0.031848573644282396344 17.25505815073397997
0.040094978690177640601 31.99085044465463668 0.040094978690177640601 19.50481886360743644
0.050476587558421215363 36.75247399799872028 0.050476587558421215363 21.99574402540519458
0.063546258777947173257 42.11503910575481768 0.063546258777947173257 24.73109455970331538
0.079999999999998294697 48.13417067361174873 0.079999999999998294697 27.70240676919209477
0.100714032943528764008 54.86204971538201391 0.100714032943528764008 30.89042029873813178
0.126791455396883634421 62.34511967430848500 0.126791455396883634421 34.27014673386392474
0.159620985197506115583 70.62364062645615093 0.159620985197506115583 37.81936371334020919
0.200950914520774404082 79.73327204267920365 0.200950914520774404082 41.51976381548170991
0.252982212813464002465 89.70511296216960773 0.252982212813464002465 45.36560355595488403
0.318485736442795541734 100.57119685720273594 0.318485736442795541734 49.37587441214116524
0.400949786901833249431 112.37003030443300133 0.400949786901833249431 53.56620074568276380
0.504765875584169521062 125.13906325591163693 0.504765875584169521062 57.98211165760217511
0.635462587779429100010 138.93529401136825641 0.635462587779429100010 62.67578369109082814
0.800000000000011368684 153.81687177161677482 0.800000000000011368684 67.72008672516092531
1.007140329435344483500 169.86969439702554041 1.007140329435344483500 73.19039683059014578
1.267914553968893187630 187.18034192585994901 1.267914553968893187630 79.13939114425126320
1.596209851975103788391 205.85044729659449558 1.596209851975103788391 85.60688333490848834
2.009509145207672986544 225.97361108678450137 2.009509145207672986544 92.54816044213671944
2.529822128134725289783 247.61651359935322603 2.529822128134725289783 99.83267160044728428
3.184857364427998049905 270.79507598245203326 3.184857364427998049905 107.23663399206752445
4.009497869018190385759 295.45249784248494507 4.009497869018190385759 114.46448243222258156
5.009497869018204596614 320.56900927631710374 5.009497869018204596614 120.97663902636431033
6.009497869018190385759 341.87587711944536295 6.009497869018190385759 125.75964501916190841
7.009497869018190385759 360.32648608071883700 7.009497869018190385759 129.27123229193023235
8.009497869018204596614 376.53613232725211901 8.009497869018204596614 131.80548435945573260
9.009497869018190385759 390.93715114926703791 9.009497869018190385759 133.55887212219090543
10.009497869018190385759 403.85123948912178093 10.009497869018190385759 134.69622713019091975
11.009497869018204596614 415.51502805087420711 11.009497869018204596614 135.50154394664977531
12.009497869018190385759 426.11452058123268216 12.009497869018190385759 135.92301926943366652
13.009497869018190385759 435.79638836729492368 13.009497869018190385759 136.03451462765488600
14.009497869018204596614 444.67932435211031361 14.009497869018204596614 135.89067985611447398
15.009497869018190385759 452.86099977654890836 15.009497869018190385759 135.49827082976349857
16.009497869018190385759 460.42311058408444069 16.009497869018190385759 134.87177185668954849
17.009497869018190385759 467.42629260324622464 17.009497869018190385759 133.91719173332472792
18.009497869018204596614 473.92600219210692103 18.009497869018204596614 132.81261478494886319
19.009497869018190385759 479.96827545043663577 19.009497869018190385759 131.36133843536481436
20.009497869018190385759 485.59083386286209816 20.009497869018190385759 129.93311221944159684
21.009497869018204596614 490.82710170432585528 21.009497869018204596614 128.40832097484747010
22.009497869018190385759 495.71396466554818971 22.009497869018190385759 126.81006810928856510
23.009497869018190385759 500.28940024610221826 23.009497869018190385759 125.09900586432829073
24.009497869018204596614 504.57892044259835984 24.009497869018204596614 123.38281128220776850
25.009497869018190385759 508.60560738988948515 25.009497869018190385759 121.57377612148266621
26.009497869018190385759 512.39037520916576796 26.009497869018190385759 119.49349840664746125
27.009497869018204596614 515.95031680350473380 27.009497869018204596614 117.36695504409348700
28.009497869018190385759 519.29036030743679930 28.009497869018190385759 115.15419679903870076
29.009497869018190385759 522.41890364084451903 29.009497869018190385759 112.91188879480863250
30.009497869018190385759 525.35255686214884463 30.009497869018190385759 110.66483366691045376
31.009497869018190385759 528.09832535538748743 31.009497869018190385759 108.35678216034544619
32.009497869018190385759 530.68011678954542276 32.009497869018190385759 106.03933121272009998
33.009497869018190385759 533.11711175015989284 33.009497869018190385759 103.76071610181463711
34.009497869018190385759 535.41890697508210906 34.009497869018190385759 101.46315846491295076
35.009497869018190385759 537.59160066232652753 35.009497869018190385759 99.07342711094253218
36.009497869018190385759 539.64342987550935504 36.009497869018190385759 96.84984285049840480
37.009497869018190385759 541.57916411623364183 37.009497869018190385759 94.64157450435939722
38.009497869018190385759 543.40322307116173306 38.009497869018190385759 92.41402660149883275
39.009497869018190385759 545.11966526837011315 39.009497869018190385759 90.14129990177917762
40.009497869018190385759 546.73838084400586013 40.009497869018190385759 87.77880331206839060
41.009497869018190385759 548.26563877494334065 41.009497869018190385759 85.59535483024646396
42.009497869018190385759 549.70717312296324053 42.009497869018190385759 83.35579447083617310
43.009497869018190385759 551.06858350038521621 43.009497869018190385759 81.19027136994724003
44.009497869018190385759 552.35482565540758060 44.009497869018190385759 79.00797143647335474
46.009497869018190385759 554.71942032902688879 46.009497869018190385759 74.79836343718737623
48.009497869018190385759 556.83289028639649132 48.009497869018190385759 70.77447464201294736
50.009497869018218807469 558.72239425872214724 50.009497869018218807469 66.87891602952228709
52.009497869018190385759 560.41393876442111832 52.009497869018190385759 63.13166797342652359
54.009497869018190385759 561.92885556001510849 54.009497869018190385759 59.56301855634325193
56.009497869018190385759 563.28688444764532051 56.009497869018190385759 56.14226390982451420
58.009497869018190385759 564.50467269326861697 58.009497869018190385759 52.88405515648183552
60.009497869018190385759 565.59796475213806843 60.009497869018190385759 49.78429138515696906
62.009497869018190385759 566.57939321207481953 62.009497869018190385759 46.83110369635694070
64.009497869018190385759 567.46191893204581902 64.009497869018190385759 44.02385957473454425
66.009497869018218807469 568.25522598506836403 66.009497869018218807469 41.38829194932313271
68.009497869018190385759 568.96887965231474027 68.009497869018190385759 38.89683053271854618
70.009497869018190385759 569.61129807043448636 70.009497869018190385759 36.50716193561054013
72.009497869018190385759 570.18937695905674445 72.009497869018190385759 34.28331993025664559
74.009497869018218807469 570.71024463308583563 74.009497869018218807469 32.16425129304212049
76.009497869018190385759 571.17971731746513342 76.009497869018190385759 30.16035227397153662
78.009497869018190385759 571.60293055376257598 78.009497869018190385759 28.26189301967860246
80.009497869018218807469 571.98465974333601025 80.009497869018218807469 26.48002548984840843
82.009497869018190385759 572.32889668245138637 82.009497869018190385759 24.78728234487409310
84.009497869018190385759 572.63922258596448955 84.009497869018190385759 23.13651312369664481
86.009497869018218807469 572.91927982393713137 86.009497869018218807469 21.62493007350326479
88.009497869018190385759 573.17201978044784028 88.009497869018190385759 20.15162594043866662
91.009497869018190385759 573.50562556350735122 91.009497869018190385759 18.11326446134468782
94.009497869018190385759 573.79199167569140627 94.009497869018190385759 16.21732383214938267
97.009497869018190385759 574.03720446753709439 97.009497869018190385759 14.50428528251620364
99.504748934509137825444 574.21413984073694792 99.504748934509137825444 12.32704205214329640
nan nan nan nan

