Time Pressure difference Time.1 Pressure.1 difference.1
(hr) (psi) (hr) (psi)
0.000200000000006639311 0.28476135307270761 0.000200000000006639311 0.22825128210876588
0.000399999999999067768 0.53249186655454894 0.000399999999999067768 0.48654994695631804
0.000600000000019917934 0.76040158845184103 0.000600000000019917934 0.66792930320098032
0.000799999999998135536 0.97415310267712829 0.000799999999998135536 0.83626077310910474
0.001007140329448930061 1.18389168849004767 0.001007140329448930061 0.99931258513919274
0.001267914553963578328 1.43434878429971735 0.001267914553963578328 1.19059693487733309
0.001596209851982166583 1.73217468702986221 0.001596209851982166583 1.41247359239187342
0.002009509145210586212 2.08480623494080985 0.002009509145210586212 1.66845097486695648
0.002529822128153114136 2.50050888599113774 0.002529822128153114136 1.96222404528719085
0.003184857364431081805 2.98842031723632928 0.003184857364431081805 2.29768987263011359
0.004009497869020606231 3.55859957255557680 0.004009497869020606231 2.67898295259708297
0.005047658755856332391 4.22208679210284288 0.005047658755856332391 3.11053282124782049
0.006354625877790454069 4.99097870090748419 0.006354625877790454069 3.59714156599799439
0.007999999999995566213 5.87852376468592031 0.007999999999995566213 4.14407532934726586
0.010071403294347192059 6.89923943894358871 0.010071403294347192059 4.75717303495522970
0.012679145539706837553 8.06905686242493836 0.012679145539706837553 5.44300201958517160
0.015962098519764822413 9.40550902545763456 0.015962098519764822413 6.20909859110010842
0.020095091452077440408 10.92798517759050192 0.020095091452077440408 7.06424535078273053
0.025298221281346400247 12.65804519336669642 0.025298221281346400247 8.01853213006402044
0.031848573644282396344 14.61969992239635197 0.031848573644282396344 9.08277835733616179
0.040094978690177640601 16.83945666906531002 0.040094978690177640601 10.26701533489760898
0.050476587558421215363 19.34589686638542716 0.050476587558421215363 11.57819730552216875
0.063546258777947173257 22.16866279826733788 0.063546258777947173257 13.01804076566107682
0.079999999999998294697 25.33703449872227509 0.079999999999998294697 14.58209056447820728
0.100714032943528764008 28.87847919381112405 0.100714032943528764008 16.26020836831904148
0.126791455396883634421 32.81744394696546863 0.126791455396883634421 18.03924068745218179
0.159620985197506115583 37.17512099899686007 0.159620985197506115583 19.90749003700919673
0.200950914520774404082 41.97028090792252186 0.200950914520774404082 21.85531969180440370
0.252982212813464002465 47.21929369565941670 0.252982212813464002465 23.87970637630057880
0.318485736442795541734 52.93902125430620487 0.318485736442795541734 25.99064689133299311
0.400949786901833249431 59.14973281147116069 0.400949786901833249431 28.19636564348037311
0.504765875584169521062 65.87114140497793358 0.504765875584169521062 30.52082840149201104
0.635462587779429100010 73.13325000083607108 0.635462587779429100010 32.99150003816750143
0.800000000000011368684 80.96666738042632971 0.800000000000011368684 35.64673805738843981
1.007140329435344483500 89.41660876239825484 1.007140329435344483500 38.52621918109571197
1.267914553968893187630 98.52864845260839388 1.267914553968893187630 41.65767178635619672
1.596209851975103788391 108.35628435560765581 1.596209851975103788391 45.06205313253227018
2.009509145207672986544 118.94878627348116140 2.009509145207672986544 48.71582705384031442
2.529822128134725289783 130.34125361922195907 2.529822128134725289783 52.55027372533196939
3.184857364427998049905 142.54206702293808462 3.184857364427998049905 56.44759755824404834
4.009497869018190385759 155.52132769314843586 4.009497869018190385759 60.25221790833852253
5.009497869018204596614 168.74224555214118482 5.009497869018204596614 63.68010986072459190
6.009497869018190385759 179.95782978359480353 6.009497869018190385759 66.19780542192691541
7.009497869018190385759 189.66992639255340691 7.009497869018190385759 68.04624711377022095
8.009497869018204596614 198.20241714523308474 8.009497869018204596614 69.38023565381904234
9.009497869018190385759 205.78287621628081183 9.009497869018190385759 70.30319008748529086
10.009497869018190385759 212.58063957664197119 10.009497869018190385759 70.90187502734632119
11.009497869018204596614 218.72026573076902878 11.009497869018204596614 71.32578053304987975
12.009497869018190385759 224.29966398677498773 12.009497869018190385759 71.54763819974050421
13.009497869018190385759 229.39603969398149275 13.009497869018190385759 71.60632751957636799
14.009497869018204596614 234.07187086230774753 14.009497869018204596614 71.53061526531637071
15.009497869018190385759 238.37857002394918027 15.009497869018190385759 71.32405761824101376
16.009497869018190385759 242.35914057772268393 16.009497869018190385759 70.99427887951870275
17.009497869018190385759 246.04550022487481442 17.009497869018190385759 70.49180362796629140
18.009497869018204596614 249.46684027872811384 18.009497869018204596614 69.91037251871824765
19.009497869018190385759 252.64739338382059941 19.009497869018190385759 69.14644455606720896
20.009497869018190385759 255.60701550825044137 20.009497869018190385759 68.39464980405614369
21.009497869018204596614 258.36330063972883408 21.009497869018204596614 67.59202481172795274
22.009497869018190385759 260.93566479821009807 22.009497869018190385759 66.75073083230248017
23.009497869018190385759 263.34409871384275448 23.009497869018190385759 65.85005585393855654
24.009497869018204596614 265.60203148136770324 24.009497869018204596614 64.94667929784166915
25.009497869018190385759 267.72161315632536116 25.009497869018190385759 63.99443299058739854
26.009497869018190385759 269.71385258757891279 26.009497869018190385759 62.89940907119537883
27.009497869018204596614 271.58774719772645767 27.009497869018204596614 61.78003167700673259
28.009497869018190385759 273.34589107560060484 28.009497869018190385759 60.61527218894057967
29.009497869018190385759 274.99270474788340834 29.009497869018190385759 59.43495819443594996
30.009497869018190385759 276.53693147569993016 30.009497869018190385759 58.25214539223471633
31.009497869018190385759 277.98225877780367910 31.009497869018190385759 57.03722510113421862
32.009497869018190385759 279.34127125730253738 32.009497869018190385759 55.81735709910234533
33.009497869018190385759 280.62406525844960470 33.009497869018190385759 54.61793164175313819
34.009497869018190385759 281.83569234595699982 34.009497869018190385759 53.40853515077141367
35.009497869018190385759 282.97936251079994463 35.009497869018190385759 52.15061993355920578
36.009497869018190385759 284.05941160757186026 36.009497869018190385759 50.98016180933571206
37.009497869018190385759 285.07835022334563746 37.009497869018190385759 49.81776573009393871
38.009497869018190385759 286.03850480837218129 38.009497869018190385759 48.64522120979796682
39.009497869018190385759 286.94201170497217390 39.009497869018190385759 47.44889531509353731
40.009497869018190385759 287.79407691788725288 40.009497869018190385759 46.20531602913252556
41.009497869018190385759 288.59800033327132951 41.009497869018190385759 45.05598471759434176
42.009497869018190385759 289.35680026678505783 42.009497869018190385759 43.87711703805918972
43.009497869018190385759 290.07342426210749409 43.009497869018190385759 42.73722135174828907
44.009497869018190385759 290.75048094345135041 44.009497869018190385759 41.58849461713977291
46.009497869018190385759 291.99516462621880919 46.009497869018190385759 39.37262631378332145
48.009497869018190385759 293.10766039528465399 48.009497869018190385759 37.25451754000424387
50.009497869018218807469 294.10226415935312616 50.009497869018218807469 35.20395966032769053
52.009497869018190385759 294.99266532129752250 52.009497869018190385759 33.23147001432619163
54.009497869018190385759 295.79009256634003577 54.009497869018190385759 31.35299174973537717
56.009497869018190385759 296.50493660114148042 56.009497869018190385759 29.55236285600801338
58.009497869018190385759 297.14596027226116348 58.009497869018190385759 27.83729544272982181
60.009497869018190385759 297.72145120157586007 60.009497869018190385759 26.20563085782393387
62.009497869018190385759 298.23805897521054931 62.009497869018190385759 24.65112150812096559
64.009497869018190385759 298.70260597581307138 64.009497869018190385759 23.17343444796194163
66.009497869018218807469 299.12018973988790549 66.009497869018218807469 21.78611506727562741
68.009497869018190385759 299.49584527386969057 68.009497869018190385759 20.47465082095480682
70.009497869018190385759 299.83400374621328410 70.009497869018190385759 19.21676863792112044
72.009497869018190385759 300.13829495013413862 72.009497869018190385759 18.04617484102312730
74.009497869018218807469 300.41247111316880591 74.009497869018218807469 16.93073201911740711
76.009497869018190385759 300.65959380031301862 76.009497869018190385759 15.87591258694254570
78.009497869018190385759 300.88236627604749174 78.009497869018190385759 14.87659490997239153
80.009497869018218807469 301.08330223297866723 80.009497869018218807469 13.93864919607207220
82.009497869018190385759 301.26450288690165280 82.009497869018190385759 13.04761709015894944
84.009497869018190385759 301.42785333032105655 84.009497869018190385759 12.17867936627017755
86.009497869018218807469 301.57527084683437124 86.009497869018218807469 11.38300694988781991
88.009497869018190385759 301.70830899640043299 88.009497869018190385759 10.60748392488985203
91.009497869018190385759 301.88391358490923722 91.009497869018190385759 9.53452402148002420
94.009497869018190385759 302.03465198887744236 94.009497869018190385759 8.53653210727039458
97.009497869018190385759 302.16372796296354863 97.009497869018190385759 7.63481683468356032
99.504748934509137825444 302.25686382865046653 99.504748934509137825444 6.48875186528521031
nan nan nan nan

