Time Pressure difference Time.1 Pressure.1 difference.1
(hr) (psi) (hr) (psi)
0.000200000000006639311 0.15456484201012491 0.000200000000006639311 0.12389189395634724
0.000399999999999067768 0.28902981509806813 0.000399999999999067768 0.26409312524279366
0.000600000000019917934 0.41273631451420223 0.000600000000019917934 0.36254353376679127
0.000799999999998135536 0.52875791881252432 0.000799999999998135536 0.45391171547731357
0.001007140329448930061 0.64260135658872997 0.001007140329448930061 0.54241416601687231
0.001267914553963578328 0.77854628389862413 0.001267914553963578328 0.64624087907767225
0.001596209851982166583 0.94020239736095212 0.001596209851982166583 0.76667270785084574
0.002009509145210586212 1.13160631823193114 0.002009509145210586212 0.90561397657815235
0.002529822128153114136 1.35724443200496947 0.002529822128153114136 1.06507026419011330
0.003184857364431081805 1.62207655360993908 0.003184857364431081805 1.24715685018064848
0.004009497869020606231 1.93156260417442094 0.004009497869020606231 1.45411788625073934
0.005047658755856332391 2.29169503141034481 0.005047658755856332391 1.68835766825676337
0.006354625877790454069 2.70903978386665356 0.006354625877790454069 1.95248270819451042
0.007999999999995566213 3.19078796029406897 0.007999999999995566213 2.24935140125939625
0.010071403294347192059 3.74481945096693591 0.010071403294347192059 2.58213304097814422
0.012679145539706837553 4.37978147544825536 0.012679145539706837553 2.95439229424916405
0.015962098519764822413 5.10519071797455926 0.015962098519764822413 3.37021977316436150
0.020095091452077440408 5.93157141668726506 0.020095091452077440408 3.83438256203854788
0.025298221281346400247 6.87062599737752233 0.025298221281346400247 4.35235729309098485
0.031848573644282396344 7.93538724394129513 0.031848573644282396344 4.93001661449542361
0.040094978690177640601 9.14024298418703829 0.040094978690177640601 5.57280538960212457
0.050476587558421215363 10.50070685657106218 0.050476587558421215363 6.28449829297291274
0.063546258777947173257 12.03286831592994766 0.063546258777947173257 7.06602701705809011
0.079999999999998294697 13.75262019246050116 0.079999999999998294697 7.91497336262631279
0.100714032943528764008 15.67487134725200448 0.100714032943528764008 8.82583437106803714
0.126791455396883634421 17.81289133551671000 0.126791455396883634421 9.79147049538969227
0.159620985197506115583 20.17818303613032782 0.159620985197506115583 10.80553248952577405
0.200950914520774404082 22.78093486933691736 0.200950914520774404082 11.86278966156620385
0.252982212813464002465 25.63003227490560221 0.252982212813464002465 12.96160101598711023
0.318485736442795541734 28.73462767348649649 0.318485736442795541734 14.10739268918319134
0.400949786901833249431 32.10572294412371264 0.400949786901833249431 15.30462878448078889
0.504765875584169521062 35.75401807311760649 0.504765875584169521062 16.56631761645776280
0.635462587779429100010 39.69579828896236506 0.635462587779429100010 17.90736676888309375
0.800000000000011368684 43.94767764903336627 0.800000000000011368684 19.34859620718883377
1.007140329435344483500 48.53419839915015643 1.007140329435344483500 20.91154195159718299
1.267914553968893187630 53.48009769310284156 1.267914553968893187630 22.61125461264321501
1.596209851975103788391 58.81441351331271505 1.596209851975103788391 24.45910952425957063
2.009509145207672986544 64.56388888193843911 2.009509145207672986544 26.44233155489620657
2.529822128134725289783 70.74757531410091360 2.529822128134725289783 28.52362045727065265
3.184857364427998049905 77.37002170927202371 3.184857364427998049905 30.63903828344787073
4.009497869018190385759 84.41499938356712107 4.009497869018190385759 32.70413783777787842
5.009497869018204596614 91.59114550751915829 5.009497869018204596614 34.56475400753266314
6.009497869018190385759 97.67882203412725062 6.009497869018190385759 35.93132714833197383
7.009497869018190385759 102.95042459449109629 7.009497869018190385759 36.93463779769435007
8.009497869018204596614 107.58175209350059731 8.009497869018204596614 37.65870981698734710
9.009497869018190385759 111.69632889979057211 9.009497869018190385759 38.15967774919739952
10.009497869018190385759 115.38606842546336395 10.009497869018190385759 38.48463632291169745
11.009497869018204596614 118.71857944310690414 11.009497869018204596614 38.71472684189993885
12.009497869018190385759 121.74700588035217663 12.009497869018190385759 38.83514836269532822
13.009497869018190385759 124.51325381922711699 13.009497869018190385759 38.86700417932996032
14.009497869018204596614 127.05123552917437735 14.009497869018204596614 38.82590853031842926
15.009497869018190385759 129.38885707901397382 15.009497869018190385759 38.71379166564670982
16.009497869018190385759 131.54946016688126065 16.009497869018190385759 38.53479195905416077
17.009497869018190385759 133.55036931521320298 17.009497869018190385759 38.26205478094992429
18.009497869018204596614 135.40742919774484676 18.009497869018204596614 37.94646136712824358
19.009497869018190385759 137.13379298583902255 19.009497869018190385759 37.53181098153280715
20.009497869018190385759 138.74023824653204429 20.009497869018190385759 37.12374634841189192
21.009497869018204596614 140.23631477266454226 21.009497869018204596614 36.68809170709928225
22.009497869018190385759 141.63256133301376849 22.009497869018190385759 36.23144803122530533
23.009497869018190385759 142.93982864174350311 23.009497869018190385759 35.74257310409379329
24.009497869018204596614 144.16540584074238041 24.009497869018204596614 35.25223179491650427
25.009497869018190385759 145.31588782568272222 25.009497869018190385759 34.73536460613789956
26.009497869018190385759 146.39725005976163175 26.009497869018190385759 34.14099954475641141
27.009497869018204596614 147.41437622957278109 27.009497869018204596614 33.53341572688384531
28.009497869018190385759 148.36867437355337529 28.009497869018190385759 32.90119908543962879
29.009497869018190385759 149.26254389738411987 29.009497869018190385759 32.26053965565961335
30.009497869018190385759 150.10073053204254734 30.009497869018190385759 31.61852390483155517
31.009497869018190385759 150.88523581582498423 31.009497869018190385759 30.95908061724155758
32.009497869018190385759 151.62289051129869222 32.009497869018190385759 30.29695177506288672
33.009497869018190385759 152.31917478575994096 33.009497869018190385759 29.64591888623275295
34.009497869018190385759 152.97683056430915371 34.009497869018190385759 28.98947384711798136
35.009497869018190385759 153.59760018923614666 35.009497869018190385759 28.30669346026929745
36.009497869018190385759 154.18383710728838309 36.009497869018190385759 27.67138367157097534
37.009497869018190385759 154.73690403320961195 37.009497869018190385759 27.04044985838839565
38.009497869018190385759 155.25806373461765020 38.009497869018190385759 26.40400760042823691
39.009497869018190385759 155.74847579096288541 39.009497869018190385759 25.75465711479404973
40.009497869018190385759 156.21096595543025387 40.009497869018190385759 25.07965808916239681
41.009497869018190385759 156.64732536426953402 41.009497869018190385759 24.45581566578470500
42.009497869018190385759 157.05919232084664827 42.009497869018190385759 23.81594127738176425
43.009497869018190385759 157.44816671439573952 43.009497869018190385759 23.19722039141349867
44.009497869018190385759 157.81566447297359446 44.009497869018190385759 22.57370612470667481
46.009497869018190385759 158.49126295115053153 46.009497869018190385759 21.37096098205353556
48.009497869018190385759 159.09511151039902188 48.009497869018190385759 20.22127846914655436
50.009497869018218807469 159.63496978820631966 50.009497869018218807469 19.10826172272065548
52.009497869018190385759 160.11826821840602975 52.009497869018190385759 18.03761942097900572
54.009497869018190385759 160.55110158857573310 54.009497869018190385759 17.01800530181235871
56.009497869018190385759 160.93910984218439353 56.009497869018190385759 16.04064683137843161
58.009497869018190385759 161.28704934093391898 58.009497869018190385759 15.10973004470909586
60.009497869018190385759 161.59941850061088076 60.009497869018190385759 14.22408325290198938
62.009497869018190385759 161.87982663202140543 62.009497869018190385759 13.38031534181626903
64.009497869018190385759 162.13197683772739310 64.009497869018190385759 12.57824559278130039
66.009497869018218807469 162.35863599573377769 66.009497869018218807469 11.82522627123518077
68.009497869018190385759 162.56253704351851752 68.009497869018190385759 11.11338015220529840
70.009497869018190385759 162.74608516298130212 70.009497869018190385759 10.43061769588872600
72.009497869018190385759 162.91125055973049029 72.009497869018190385759 9.79523426578761303
74.009497869018218807469 163.06006989516737349 74.009497869018218807469 9.18978608372631989
76.009497869018190385759 163.19420494784716880 76.009497869018190385759 8.61724350684901097
78.009497869018190385759 163.31512301536074006 78.009497869018190385759 8.07482657705102902
80.009497869018218807469 163.42418849809601511 80.009497869018218807469 7.56572156852811695
82.009497869018190385759 163.52254190927183686 82.009497869018190385759 7.08208066996402597
84.009497869018190385759 163.61120645313272348 84.009497869018190385759 6.61043232105618461
86.009497869018218807469 163.69122280683919257 86.009497869018218807469 6.17855144957236213
88.009497869018190385759 163.76343422298509722 88.009497869018190385759 5.75760741155390487
91.009497869018190385759 163.85875016100206381 91.009497869018190385759 5.17521841752705392
94.009497869018190385759 163.94056905019752435 94.009497869018190385759 4.63352109489982311
97.009497869018190385759 164.01062984786776155 97.009497869018190385759 4.14408150929034402
99.504748934509137825444 164.06118281163912798 99.504748934509137825444 3.52201201489808469
nan nan nan nan

