Time Pressure difference Time.1 Pressure.1 difference.1
(hr) (psi) (hr) (psi)
0.000200000000006639311 0.47065690630110107 0.000200000000006639311 0.37725639781302134
0.000399999999999067768 0.88010880633465804 0.000399999999999067768 0.80417546245102944
0.000600000000019917934 1.25680066942162494 0.000600000000019917934 1.10396139110968883
0.000799999999998135536 1.61009168070840758 0.000799999999998135536 1.38218162010209000
0.001007140329448930061 1.95675007681973656 0.001007140329448930061 1.65167556859191755
0.001267914553963578328 2.37070850412373835 0.001267914553963578328 1.96783258674101980
0.001596209851982166583 2.86295865142344041 0.001596209851982166583 2.33455293021248522
0.002009509145210586212 3.44579221227380783 0.002009509145210586212 2.75763535210284250
0.002529822128153114136 4.13287043259170872 0.002529822128153114136 3.24318693059692142
0.003184857364431081805 4.93929617225368922 0.003184857364431081805 3.79764878703656938
0.004009497869020606231 5.88169513703562430 0.004009497869020606231 4.42785446443918840
0.005047658755856332391 6.97831460015042015 0.005047658755856332391 5.14112515198906372
0.006354625877790454069 8.24914817069305251 0.006354625877790454069 5.94539779612382446
0.007999999999995566213 9.71609306828283970 0.007999999999995566213 6.84937633897005416
0.010071403294347192059 11.40314391375517467 0.010071403294347192059 7.86271142207759244
0.012679145539706837553 13.33663188019378687 0.012679145539706837553 8.99625761672267821
0.015962098519764822413 15.54553569977838912 0.015962098519764822413 10.26247102098697539
0.020095091452077440408 18.06190215171437430 0.020095091452077440408 11.67586762134260603
0.025298221281346400247 20.92136564967209367 0.025298221281346400247 13.25312400959236747
0.031848573644282396344 24.16361160767710103 0.031848573644282396344 15.01212266395903683
0.040094978690177640601 27.83245160950647801 0.040094978690177640601 16.96944343860827331
0.050476587558421215363 31.97512538307224617 0.050476587558421215363 19.13658038761121105
0.063546258777947173257 36.64062604310201010 0.063546258777947173257 21.51637055644716057
0.079999999999998294697 41.87734797343828319 0.079999999999998294697 24.10145041952877420
0.100714032943528764008 47.73068932766826578 0.100714032943528764008 26.87506322000897896
0.126791455396883634421 54.24105649914097427 0.126791455396883634421 29.81546871569113577
0.159620985197506115583 61.44347627218063224 0.159620985197506115583 32.90333316630371030
0.200950914520774404082 69.36897284536827613 0.200950914520774404082 36.12272887936375554
0.252982212813464002465 78.04460278304588883 0.252982212813464002465 39.46865894958236964
0.318485736442795541734 87.49823561836427643 0.318485736442795541734 42.95764620670196621
0.400949786901833249431 97.76337256859292779 0.400949786901833249431 46.60328404643698974
0.504765875584169521062 108.87259557399775645 0.504765875584169521062 50.44518337263715324
0.635462587779429100010 120.87549388891241620 0.635462587779429100010 54.52873844939176706
0.800000000000011368684 133.82265806642593020 0.800000000000011368684 58.91734700927770518
1.007140329435344483500 147.78882035056531663 1.007140329435344483500 63.67658720396259042
1.267914553968893187630 162.84930648890775728 1.267914553968893187630 68.85228882048113519
1.596209851975103788391 179.09253844594323368 1.596209851975103788391 74.47909026306066949
2.009509145207672986544 196.59994992878549169 2.009509145207672986544 80.51809068067493058
2.529822128134725289783 215.42955365915415200 2.529822128134725289783 86.85570914015748656
3.184857364427998049905 235.59520124084633608 3.184857364427998049905 93.29725170995837402
4.009497869018190385759 257.04747560041158749 4.009497869018190385759 99.58557287539569813
5.009497869018204596614 278.89916379767095123 5.009497869018204596614 105.25123292383818807
6.009497869018190385759 297.43641304085593902 6.009497869018190385759 109.41250969492077161
7.009497869018190385759 313.48868029673860747 7.009497869018190385759 112.46763581640261975
8.009497869018204596614 327.59128114957843536 8.009497869018204596614 114.67246773100653456
9.009497869018190385759 340.12035286602895212 9.009497869018190385759 116.19793765070920699
10.009497869018190385759 351.35577592618574272 10.009497869018190385759 117.18745114544282160
11.009497869018204596614 361.50342208801924926 11.009497869018204596614 117.88808714019980073
12.009497869018190385759 370.72511700503633847 12.009497869018190385759 118.25477609541459856
13.009497869018190385759 379.14846658467354246 13.009497869018190385759 118.35177849201376432
14.009497869018204596614 386.87673521496344620 14.009497869018204596614 118.22664038961826805
15.009497869018190385759 393.99489813249300596 15.009497869018190385759 117.88523948638366790
16.009497869018190385759 400.57403185951227442 16.009497869018190385759 117.34017731675950813
17.009497869018190385759 406.66689034722583074 17.009497869018190385759 116.50968032397362606
18.009497869018204596614 412.32172134088068560 18.009497869018204596614 115.54868416296709199
19.009497869018190385759 417.57857683976214958 19.009497869018190385759 114.28605506088369737
20.009497869018190385759 422.47027502097142815 20.009497869018190385759 113.04347987174071477
21.009497869018204596614 427.02589543387938420 21.009497869018204596614 111.71689186486086953
22.009497869018190385759 431.27752910413204290 22.009497869018190385759 110.32639130228966451
23.009497869018190385759 435.25821694512876547 23.009497869018190385759 108.83774512778110477
24.009497869018204596614 438.99015472226057000 24.009497869018204596614 107.34463375388990869
25.009497869018190385759 442.49342418991676595 25.009497869018190385759 105.77074988175326098
26.009497869018190385759 445.78622090269766431 26.009497869018190385759 103.96088149664566913
27.009497869018204596614 448.88341590626669131 27.009497869018204596614 102.11076140258325040
28.009497869018190385759 451.78929674109048165 28.009497869018190385759 100.18563325115850660
29.009497869018190385759 454.51116970554807040 29.009497869018190385759 98.23479642894548647
30.009497869018190385759 457.06348576423761187 30.009497869018190385759 96.27982954804565452
31.009497869018190385759 459.45233969143106378 31.009497869018190385759 94.27179503268149574
32.009497869018190385759 461.69853146683738032 32.009497869018190385759 92.25558288262392637
33.009497869018190385759 463.81874844672853442 33.009497869018190385759 90.27315841033036747
34.009497869018190385759 465.82133991654501415 34.009497869018190385759 88.27425369662952903
35.009497869018190385759 467.71161138704343330 35.009497869018190385759 86.19515666280200605
36.009497869018190385759 469.49672920958090572 36.009497869018190385759 84.26060973865756409
37.009497869018190385759 471.18084291193554236 37.009497869018190385759 82.33938785707458408
38.009497869018190385759 472.76779767838525004 38.009497869018190385759 80.40139251301570766
39.009497869018190385759 474.26112448058972859 39.009497869018190385759 78.42409103423773331
40.009497869018190385759 475.66942786428313639 40.009497869018190385759 76.36868859582784808
41.009497869018190385759 476.99816192002793969 41.009497869018190385759 74.46906031563268868
42.009497869018190385759 478.25231535537085392 42.009497869018190385759 72.52061397977510637
43.009497869018190385759 479.43675990509700569 43.009497869018190385759 70.63658101169154691
44.009497869018190385759 480.55580713391958625 44.009497869018190385759 68.73795198334104839
46.009497869018190385759 482.61303493233225481 46.009497869018190385759 65.07553884625311014
48.009497869018190385759 484.45178099562940588 48.009497869018190385759 61.57470380695077239
50.009497869018218807469 486.09567376949308937 50.009497869018218807469 58.18551767819442944
52.009497869018190385759 487.56733925965079379 52.009497869018190385759 54.92536364226040035
54.009497869018190385759 488.88533636881618349 54.009497869018190385759 51.82059272083402846
56.009497869018190385759 490.06683897890377466 56.009497869018190385759 48.84449215320640292
58.009497869018190385759 491.12633042554654139 58.009497869018190385759 46.00980860460968103
60.009497869018190385759 492.07750858744572042 60.009497869018190385759 43.31297422955741183
62.009497869018190385759 492.93136397858768305 62.009497869018190385759 40.74366293273783413
64.009497869018190385759 493.69917271307980400 64.009497869018190385759 38.30132441765837115
66.009497869018218807469 494.38936005908129800 66.009497869018218807469 36.00834666376118065
68.009497869018190385759 495.01024793431764692 68.009497869018190385759 33.84074316617468980
70.009497869018190385759 495.56916022601512850 70.009497869018190385759 31.76170073162512608
72.009497869018190385759 496.07209629899909942 72.009497869018190385759 29.82692956609201218
74.009497869018218807469 496.52525787897820919 74.009497869018218807469 27.98331257927473459
76.009497869018190385759 496.93370515650764219 76.009497869018190385759 26.23989464247716796
78.009497869018190385759 497.30190611884626151 78.009497869018190385759 24.58821065804727724
80.009497869018218807469 497.63401542663461896 80.009497869018218807469 23.03796297443696872
82.009497869018190385759 497.93350599399894918 82.009497869018190385759 21.56525465268325092
84.009497869018190385759 498.20349352395362530 84.009497869018190385759 20.12906418483774829
86.009497869018218807469 498.44714692533017342 86.009497869018218807469 18.81396747707620065
88.009497869018190385759 498.66703394026092155 88.009497869018190385759 17.53217391986684603
91.009497869018190385759 498.95727526503333138 91.009497869018190385759 15.75877319931661447
94.009497869018190385759 499.20641746816909290 94.009497869018190385759 14.10928045113639939
97.009497869018190385759 499.41975575296663692 97.009497869018190385759 12.61891486612735314
99.504748934509137825444 499.57369180481106241 99.504748934509137825444 10.72468523455452782
nan nan nan nan

