Time Pressure difference Time.1 Pressure.1 difference.1
(hr) (psi) (hr) (psi)
0.000200000000006639311 0.36622120224020588 0.000200000000006639311 0.29354565865332727
0.000399999999999067768 0.68481839072785511 0.000399999999999067768 0.62573416161130402
0.000600000000019917934 0.97792478123635307 0.000600000000019917934 0.85899954396996492
0.000799999999998135536 1.25282281664589101 0.000799999999998135536 1.07548451504985110
0.001007140329448930061 1.52255997101654028 0.001007140329448930061 1.28517951047240930
0.001267914553963578328 1.84466371770574900 0.001267914553963578328 1.53118334412097123
0.001596209851982166583 2.22768676131468846 0.001596209851982166583 1.81653083031326501
0.002009509145210586212 2.68119334860358416 0.002009509145210586212 2.14573401657706375
0.002529822128153114136 3.21581338393970206 0.002529822128153114136 2.52354486019819646
0.003184857364431081805 3.84329850089562175 0.003184857364431081805 2.95497523961721242
0.004009497869020606231 4.57658526935020404 0.004009497869020606231 3.44534237913463492
0.005047658755856332391 5.42987201135964614 0.005047658755856332391 4.00034294370746579
0.006354625877790454069 6.41871588429666584 0.006354625877790454069 4.62615272301942504
0.007999999999995566213 7.56015525727333415 0.007999999999995566213 5.32954431109208304
0.010071403294347192059 8.87286050093967660 0.010071403294347192059 6.11802693493019767
0.012679145539706837553 10.37732007245847932 0.012679145539706837553 7.00004660709486526
0.015962098519764822413 12.09608251195774109 0.015962098519764822413 7.98529549857862175
0.020095091452077440408 14.05408362692568325 0.020095091452077440408 9.08506859293818181
0.025298221281346400247 16.27905078657917315 0.025298221281346400247 10.31234205480116195
0.031848573644282396344 18.80186346987892421 0.031848573644282396344 11.68103035686753444
0.040094978690177640601 21.65661175532604332 0.040094978690177640601 13.20403439157980863
0.050476587558421215363 24.88005318268639243 0.050476587558421215363 14.89029775722410953
0.063546258777947173257 28.51030961341960790 0.063546258777947173257 16.74202797735385317
0.079999999999998294697 32.58503703258659101 0.079999999999998294697 18.75349544478126518
0.100714032943528764008 37.13956003898447733 0.100714032943528764008 20.91166161793598022
0.126791455396883634421 42.20531911027833161 0.126791455396883634421 23.19961027286026223
0.159620985197506115583 47.80956881533582248 0.159620985197506115583 25.60229770040791664
0.200950914520774404082 53.97644928500548644 0.200950914520774404082 28.10733045938659203
0.252982212813464002465 60.72701340810966997 0.252982212813464002465 30.71082042526675693
0.318485736442795541734 68.08294664979233346 0.318485736442795541734 33.42562411941602818
0.400949786901833249431 76.07031652526609378 0.400949786901833249431 36.26231865151754619
0.504765875584169521062 84.71447525432370185 0.504765875584169521062 39.25172552367920531
0.635462587779429100010 94.05400855853244479 0.635462587779429100010 42.42916630825453694
0.800000000000011368684 104.12828127653851595 0.800000000000011368684 45.84397119360957618
1.007140329435344483500 114.99544305384226561 1.007140329435344483500 49.54716696639692941
1.267914553968893187630 126.71410534491936062 1.267914553968893187630 53.57441408220870471
1.596209851975103788391 139.35306985586709061 1.596209851975103788391 57.95266490883123112
2.009509145207672986544 152.97570068423249268 2.009509145207672986544 62.65165044088020352
2.529822128134725289783 167.62713790638326827 2.529822128134725289783 67.58299261497461430
3.184857364427998049905 183.31815954539226254 3.184857364427998049905 72.59519881573683620
4.009497869018190385759 200.01031385475812385 4.009497869018190385759 77.48818244446469805
5.009497869018204596614 217.01325467096881994 5.009497869018204596614 81.89666940523504479
6.009497869018190385759 231.43720896374293261 6.009497869018190385759 85.13458594604782093
7.009497869018190385759 243.92758259775814622 7.009497869018190385759 87.51179946660913345
8.009497869018204596614 254.90090811342935240 8.009497869018204596614 89.22739353033941256
9.009497869018190385759 264.64986036617045784 9.009497869018190385759 90.41437160395420847
10.009497869018190385759 273.39221617925107921 10.009497869018190385759 91.18431849482681173
11.009497869018204596614 281.28816570754162285 11.009497869018204596614 91.72948792269984608
12.009497869018190385759 288.46362654533891146 12.009497869018190385759 92.01481098548532600
13.009497869018190385759 295.01788967979041445 13.009497869018190385759 92.09028918165567745
14.009497869018204596614 301.03130580335908917 14.009497869018204596614 91.99291840967337919
15.009497869018190385759 306.56999470072685199 15.009497869018190385759 91.72727214473049173
16.009497869018190385759 311.68926147648443248 16.009497869018190385759 91.30315572280400715
17.009497869018190385759 316.43015432343310067 17.009497869018190385759 90.65694060711558677
18.009497869018204596614 320.83021512618819315 18.009497869018204596614 89.90918323923179400
19.009497869018190385759 324.92060860608711437 19.009497869018190385759 88.92672331660476459
20.009497869018190385759 328.72687080034165774 20.009497869018190385759 87.95986747416510809
21.009497869018204596614 332.27162869559259661 21.009497869018204596614 86.92764071141540683
22.009497869018190385759 335.57985252777137930 22.009497869018190385759 85.84568317308337271
23.009497869018190385759 338.67725164665347393 23.009497869018190385759 84.68735789528530233
24.009497869018204596614 341.58109672175896776 24.009497869018204596614 83.52555821678416237
25.009497869018190385759 344.30701349688791879 25.009497869018190385759 82.30090893166007504
26.009497869018190385759 346.86916005150732190 26.009497869018190385759 80.89263856099944405
27.009497869018204596614 349.27910764304181157 27.009497869018204596614 79.45304807360768962
28.009497869018190385759 351.54019243463545763 28.009497869018190385759 77.95509332856416052
29.009497869018190385759 353.65809950461283506 29.009497869018190385759 76.43713449944574734
30.009497869018190385759 355.64407324258723975 30.009497869018190385759 74.91596204478108234
31.009497869018190385759 357.50285603208982366 31.009497869018190385759 73.35349731832909015
32.009497869018190385759 359.25063247271668843 32.009497869018190385759 71.78466952109494059
33.009497869018190385759 360.90038710499879926 33.009497869018190385759 70.24213213584877735
34.009497869018190385759 362.45861656228203174 34.009497869018190385759 68.68677136749576562
35.009497869018190385759 363.92944909701901679 35.009497869018190385759 67.06901243289031811
36.009497869018190385759 365.31846089384549714 36.009497869018190385759 65.56372887948798223
37.009497869018190385759 366.62888072733449008 37.009497869018190385759 64.06881362843377303
38.009497869018190385759 367.86370056040038889 38.009497869018190385759 62.56084683705068983
39.009497869018190385759 369.02566786507424013 39.009497869018190385759 61.02229568640392188
40.009497869018190385759 370.12147789439779899 40.009497869018190385759 59.42297367071811465
41.009497869018190385759 371.15537451173770478 41.009497869018190385759 57.94486054145384202
42.009497869018190385759 372.13123946290693311 42.009497869018190385759 56.42876176532796251
43.009497869018190385759 373.05286347645125034 43.009497869018190385759 54.96278344992567355
44.009497869018190385759 373.92360140893742937 44.009497869018190385759 53.48544784502572469
46.009497869018190385759 375.52434374912246540 46.009497869018190385759 50.63570034486559024
48.009497869018190385759 376.95508402914362023 48.009497869018190385759 47.91167781428418238
50.009497869018218807469 378.23420769638073580 50.009497869018218807469 45.27453002770749890
52.009497869018190385759 379.37932019316019705 52.009497869018190385759 42.73778295240971659
54.009497869018190385759 380.40486232248127862 54.009497869018190385759 40.32194048987972224
56.009497869018190385759 381.32419719364406774 56.009497869018190385759 38.00621726713988835
58.009497869018190385759 382.14859438437497374 58.009497869018190385759 35.80053154737380794
60.009497869018190385759 382.88871230324917860 60.009497869018190385759 33.70210716678579388
62.009497869018190385759 383.55310274073536903 62.009497869018190385759 31.70290932340251189
64.009497869018190385759 384.15053971461532001 64.009497869018190385759 29.80250982794127879
66.009497869018218807469 384.68757898088279035 66.009497869018218807469 28.01832891292659866
68.009497869018190385759 385.17069587788620311 68.009497869018190385759 26.33170252279273527
70.009497869018190385759 385.60558916994665424 70.009497869018190385759 24.71398607224085353
72.009497869018190385759 385.99692700188398931 72.009497869018190385759 23.20852803515443696
74.009497869018218807469 386.34953497683807200 74.009497869018218807469 21.77399765783803431
76.009497869018190385759 386.66735046201631576 76.009497869018190385759 20.41743281352513151
78.009497869018190385759 386.95385002738629510 78.009497869018190385759 19.13224675463441926
80.009497869018218807469 387.21226644143462181 80.009497869018218807469 17.92598894164769874
82.009497869018190385759 387.44530200124768271 82.009497869018190385759 16.78006501081566526
84.009497869018190385759 387.65538105562075089 84.009497869018190385759 15.66255585979978804
86.009497869018218807469 387.84496935314149368 86.009497869018218807469 14.63927055168947078
88.009497869018190385759 388.01606487067641638 88.009497869018190385759 13.64189864178988287
91.009497869018190385759 388.24190353462654457 91.009497869018190385759 12.26200399828482190
94.009497869018190385759 388.43576270452206245 94.009497869018190385759 10.97852295458246452
97.009497869018190385759 388.60176261251547203 97.009497869018190385759 9.81885979228252559
99.504748934509137825444 388.72154125640622624 99.504748934509137825444 8.34494738665041780
nan nan nan nan

