Time Pressure difference Time.1 Pressure.1 difference.1
(hr) (psi) (hr) (psi)
0.000200000000006639311 0.50964623581716861 0.000200000000006639311 0.40850840709930719
0.000399999999999067768 0.95301722816119772 0.000399999999999067768 0.87079354809786025
0.000600000000019917934 1.36091433434412634 0.000600000000019917934 1.19541381404185243
0.000799999999998135536 1.74347205662508031 0.000799999999998135536 1.49668187265492603
0.001007140329448930061 2.11884771631959623 0.001007140329448930061 1.78850076362320065
0.001267914553963578328 2.56709855771978779 0.001267914553963578328 2.13084830398583813
0.001596209851982166583 3.10012682373070758 0.001596209851982166583 2.52794784750819401
0.002009509145210586212 3.73124245471069171 0.002009509145210586212 2.98607851736579999
0.002529822128153114136 4.47523839742179064 0.002529822128153114136 3.51185330354577907
0.003184857364431081805 5.34846863622736723 0.003184857364431081805 4.11224691140646303
0.004009497869020606231 6.36893615430484683 0.004009497869020606231 4.79465897628622173
0.005047658755856332391 7.55639983329897547 0.005047658755856332391 5.56701717641419247
0.006354625877790454069 8.93250955761437204 0.006354625877790454069 6.43791595674946571
0.007999999999995566213 10.52097651772638898 0.007999999999995566213 7.41678029604449662
0.010071403294347192059 12.34778305453962588 0.010071403294347192059 8.51406029727928626
0.012679145539706837553 14.44144162174830193 0.012679145539706837553 9.74150972698373074
0.015962098519764822413 16.83333155656476521 0.015962098519764822413 11.11261654935276155
0.020095091452077440408 19.55815440096882085 0.020095091452077440408 12.64309925861359041
0.025298221281346400247 22.65449653189345014 0.025298221281346400247 14.35101593938108522
0.031848573644282396344 26.16533091245508302 0.031848573644282396344 16.25573045860653210
0.040094978690177640601 30.13809848840050520 0.040094978690177640601 18.37519614949889757
0.050476587558421215363 34.62395233788296878 0.050476587558421215363 20.72185923628906323
0.063546258777947173257 39.67594417685010200 0.063546258777947173257 23.29879178597532174
0.079999999999998294697 45.34647739135624533 0.079999999999998294697 26.09802027676784419
0.100714032943528764008 51.68471092877688022 0.100714032943528764008 29.10139981811623144
0.126791455396883634421 58.73439845764969647 0.126791455396883634421 32.28538920101466658
0.159620985197506115583 66.53346838940271368 0.159620985197506115583 35.62905307357147677
0.200950914520774404082 75.11551497457037385 0.200950914520774404082 39.11514428948856192
0.252982212813464002465 84.50983614968873781 0.252982212813464002465 42.73825199866020341
0.318485736442795541734 94.74661016663114310 0.318485736442795541734 46.51626778595538525
0.400949786901833249431 105.86211349143493976 0.400949786901833249431 50.46391112720692007
0.504765875584169521062 117.89162716000940634 0.504765875584169521062 54.62407430291479216
0.635462587779429100010 130.88884841225424793 0.635462587779429100010 59.04591204874966337
0.800000000000011368684 144.90855873465054060 0.800000000000011368684 63.79807398046048661
1.007140329435344483500 160.03168120800862084 1.007140329435344483500 68.95157075932043256
1.267914553968893187630 176.33978158266342007 1.267914553968893187630 74.55602872276952553
1.596209851975103788391 193.92860671957166119 1.596209851975103788391 80.64895572863966322
2.009509145207672986544 212.88633631341861019 2.009509145207672986544 87.18822837019830274
2.529822128134725289783 233.27578887352194670 2.529822128134725289783 94.05085664289241265
3.184857364427998049905 255.11196347381584815 3.184857364427998049905 101.02601812380108015
4.009497869018190385759 278.34134931878890029 4.009497869018190385759 107.83526530294327017
5.009497869018204596614 302.00323653830645299 5.009497869018204596614 113.97026997078336308
6.009497869018190385759 322.07611589631147808 6.009497869018190385759 118.47626789450001183
7.009497869018190385759 339.45815677102467589 7.009497869018190385759 121.78448138699219783
8.009497869018204596614 354.72902041640736570 8.009497869018204596614 124.17196209925559458
9.009497869018190385759 368.29600339930942710 9.009497869018190385759 125.82380230816440303
10.009497869018190385759 380.46217156504133072 10.009497869018190385759 126.89528733500613100
11.009497869018204596614 391.45045113673091919 11.009497869018204596614 127.65396418139978607
12.009497869018190385759 401.43607344332343700 12.009497869018190385759 128.05102973645486486
13.009497869018190385759 410.55721529582996254 13.009497869018190385759 128.15606783454745710
14.009497869018204596614 418.92569552862903492 14.009497869018204596614 128.02056326213102011
15.009497869018190385759 426.63352874701905648 15.009497869018190385759 127.65088062726752582
16.009497869018190385759 433.75767946917608242 16.009497869018190385759 127.06066537850290388
17.009497869018190385759 440.35527179610841131 17.009497869018190385759 126.16136981826730334
18.009497869018204596614 446.47855032769922445 18.009497869018204596614 125.12076450782826953
19.009497869018190385759 452.17088498033416499 19.009497869018190385759 123.75353891208115442
20.009497869018190385759 457.46781259667318409 20.009497869018190385759 122.40802850016892478
21.009497869018204596614 462.40082168283981900 21.009497869018204596614 120.97154562881384265
22.009497869018190385759 467.00466169264007021 22.009497869018190385759 119.46585567052667898
23.009497869018190385759 471.31511065655956827 23.009497869018190385759 117.85388969457953579
24.009497869018204596614 475.35620304244781664 24.009497869018204596614 116.23708862107605455
25.009497869018190385759 479.14968418198088784 25.009497869018190385759 114.53282383645469622
26.009497869018190385759 482.71525695380870502 26.009497869018190385759 112.57302552595358236
27.009497869018204596614 486.06902432453728125 27.009497869018204596614 110.56964104540081451
28.009497869018190385759 489.21562901550032620 28.009497869018190385759 108.48503482226040262
29.009497869018190385759 492.16298258056383474 29.009497869018190385759 106.37259021595870934
30.009497869018190385759 494.92673310565373868 30.009497869018190385759 104.25567341593108495
31.009497869018190385759 497.51348025758505855 31.009497869018190385759 102.08129284603971598
32.009497869018190385759 499.94574709130910151 32.009497869018190385759 99.89805720426140567
33.009497869018190385759 502.24160334764087565 33.009497869018190385759 97.75140821947016434
34.009497869018190385759 504.41008996880316317 34.009497869018190385759 95.58691376617279900
35.009497869018190385759 506.45695197531915710 35.009497869018190385759 93.33558384196904001
36.009497869018190385759 508.38994938078877794 36.009497869018190385759 91.24077859274753166
37.009497869018190385759 510.21357546085329204 37.009497869018190385759 89.16040223576715107
38.009497869018190385759 511.93199393576628609 38.009497869018190385759 87.06186289870932171
39.009497869018190385759 513.54902828371552914 39.009497869018190385759 84.92076129742902424
40.009497869018190385759 515.07399585304028733 40.009497869018190385759 82.69508883453546844
41.009497869018190385759 516.51280255245626449 41.009497869018190385759 80.63809489799280072
42.009497869018190385759 517.87085035522409271 42.009497869018190385759 78.52823880650203137
43.009497869018190385759 519.15341457179147255 43.009497869018190385759 76.48813210141747732
44.009497869018190385759 520.36516393791282553 44.009497869018190385759 74.43222019497875408
46.009497869018190385759 522.59281297406391786 46.009497869018190385759 70.46641188677112666
48.009497869018190385759 524.58388119645076131 48.009497869018190385759 66.67556684421298030
50.009497869018218807469 526.36395443678839001 50.009497869018218807469 63.00561973437621077
52.009497869018190385759 527.95753304447384835 52.009497869018190385759 59.47539376647132059
54.009497869018190385759 529.38471334611472230 54.009497869018190385759 56.11342288705696291
56.009497869018190385759 530.66409191206741980 56.009497869018190385759 52.89078144400455983
58.009497869018190385759 531.81135188091718646 58.009497869018190385759 49.82127203931107573
60.009497869018190385759 532.84132586687906041 60.009497869018190385759 46.90103126632548225
62.009497869018190385759 533.76591484071911964 62.009497869018190385759 44.11887761355635007
64.009497869018190385759 534.59732903250653635 64.009497869018190385759 41.47421519781941868
66.009497869018218807469 535.34469166160874920 66.009497869018218807469 38.99128662407275669
68.009497869018190385759 536.01701403538538671 68.009497869018190385759 36.64411833970395804
70.009497869018190385759 536.62222675361408619 70.009497869018190385759 34.39284753779525516
72.009497869018190385759 537.16682616992227395 72.009497869018190385759 32.29779947097537018
74.009497869018218807469 537.65752776244380584 74.009497869018218807469 30.30145681661110757
76.009497869018190385759 538.09981090911776391 76.009497869018190385759 28.41361372528592355
78.009497869018190385759 538.49851372632463153 78.009497869018190385759 26.62510384865474578
80.009497869018218807469 538.85813504777593153 80.009497869018218807469 24.94643328001162885
82.009497869018190385759 539.18243548462601211 82.009497869018190385759 23.35172545231381491
84.009497869018190385759 539.47478884546455902 84.009497869018190385759 21.79656062618525780
86.009497869018218807469 539.73862655228060703 86.009497869018218807469 20.37252099588724974
88.009497869018190385759 539.97672905957244893 88.009497869018190385759 18.98454335701557838
91.009497869018190385759 540.29101404438529244 91.009497869018190385759 17.06423370103515325
94.009497869018190385759 540.56079524659730851 94.009497869018190385759 15.27809658318319919
97.009497869018190385759 540.79180652540185292 97.009497869018190385759 13.66426876036275395
99.504748934509137825444 540.95849467621553686 99.504748934509137825444 11.61312069777206268
nan nan nan nan

