Time Pressure difference Time.1 Pressure.1 difference.1
(hr) (psi) (hr) (psi)
0.000200000000006639311 0.68231326653118207 0.000200000000006639311 0.54691016251000135
0.000399999999999067768 1.27589738196444502 0.000399999999999067768 1.16581649881953986
0.000600000000019917934 1.82198913614377567 0.000600000000019917934 1.60041740131286225
0.000799999999998135536 2.33415657854177416 0.000799999999998135536 2.00375441967462775
0.001007140329448930061 2.83670869124754654 0.001007140329448930061 2.39444091304745443
0.001267914553963578328 3.43682593793086300 0.001267914553963578328 2.85277505178431889
0.001596209851982166583 4.15044301537717608 0.001596209851982166583 3.38441105267490450
0.002009509145210586212 4.99537924264546085 0.002009509145210586212 3.99775539210175390
0.002529822128153114136 5.99143938452644154 0.002529822128153114136 4.70166152660500458
0.003184857364431081805 7.16051811953937101 0.003184857364431081805 5.50546717647313244
0.004009497869020606231 8.52671780221140629 0.004009497869020606231 6.41907895732308376
0.005047658755856332391 10.11649158009972105 0.005047658755856332391 7.45311042743976593
0.006354625877790454069 11.95882427112306701 0.006354625877790454069 8.61906781094873864
0.007999999999995566213 14.08546036526210621 0.007999999999995566213 9.92956924880274094
0.010071403294347192059 16.53118496372791313 0.010071403294347192059 11.39860531602964500
0.012679145539706837553 19.33417047720401172 0.012679145539706837553 13.04191192956838030
0.015962098519764822413 22.53642749376157184 0.015962098519764822413 14.87754674640123653
0.020095091452077440408 26.18441436195278982 0.020095091452077440408 16.92655365224224084
0.025298221281346400247 30.32979043887374715 0.025298221281346400247 19.21310877130254369
0.031848573644282396344 35.03008783361472922 0.031848573644282396344 21.76313640633114943
0.040094978690177640601 40.34882038064548482 0.040094978690177640601 24.60067244058595648
0.050476587558421215363 46.35447170918757109 0.050476587558421215363 27.74237985186240962
0.063546258777947173257 53.11806734059166502 0.063546258777947173257 31.19237151674292363
0.079999999999998294697 60.70976481356437660 0.079999999999998294697 34.93997250168371949
0.100714032943528764008 69.19537801940074928 0.100714032943528764008 38.96089046687691848
0.126791455396883634421 78.63348427390259587 0.126791455396883634421 43.22360849316170572
0.159620985197506115583 89.07486205138613400 0.159620985197506115583 47.70009837718584578
0.200950914520774404082 100.56448726103684521 0.200950914520774404082 52.36726967718414016
0.252982212813464002465 113.14158391624995659 0.252982212813464002465 57.21787835886201634
0.318485736442795541734 126.84655459467012406 0.318485736442795541734 62.27587763693480838
0.400949786901833249431 141.72796614973532314 0.400949786901833249431 67.56097391347374526
0.504765875584169521062 157.83305275520382338 0.504765875584169521062 73.13059127985860641
0.635462587779429100010 175.23370415848251014 0.635462587779429100010 79.05053798876321025
0.800000000000011368684 194.00326169393107989 0.800000000000011368684 85.41272199569844759
1.007140329435344483500 214.25006500525742581 1.007140329435344483500 92.31221221876234040
1.267914553968893187630 236.08331414072424081 1.267914553968893187630 99.81544829004663200
1.596209851975103788391 259.63119478849756661 1.596209851975103788391 107.97264564763233352
2.009509145207672986544 285.01176173107955947 2.009509145207672986544 116.72740956665893464
2.529822128134725289783 312.30911625143653509 2.529822128134725289783 125.91508129786144821
3.184857364427998049905 341.54333907696656070 3.184857364427998049905 135.25341224224732173
4.009497869018190385759 372.64279007160257606 4.009497869018190385759 144.36961748208253198
5.009497869018204596614 404.32127296112059867 5.009497869018204596614 152.58314832154056262
6.009497869018190385759 431.19479997047164943 6.009497869018190385759 158.61576849263661870
7.009497869018190385759 454.46583830000571425 7.009497869018190385759 163.04479748531738892
8.009497869018204596614 474.91043716950713360 8.009497869018204596614 166.24115144435856450
9.009497869018190385759 493.07388433240885206 9.009497869018190385759 168.45263150546600173
10.009497869018190385759 509.36192367997341535 10.009497869018190385759 169.88713331735795009
11.009497869018204596614 524.07300835245393955 11.009497869018204596614 170.90284822099971507
12.009497869018190385759 537.44173767002314435 12.009497869018190385759 171.43443871820460345
13.009497869018190385759 549.65310244523675465 13.009497869018190385759 171.57506349433947435
14.009497869018204596614 560.85680548914808696 14.009497869018204596614 171.39365026897323219
15.009497869018190385759 571.17603575420582729 15.009497869018190385759 170.89871996546747823
16.009497869018190385759 580.71383316911544625 16.009497869018190385759 170.10854108050935452
17.009497869018190385759 589.54667535544570001 17.009497869018190385759 168.90456615013928854
18.009497869018204596614 597.74450726932411726 18.009497869018204596614 167.51140603507062110
19.009497869018190385759 605.36539246001018455 19.009497869018190385759 165.68096739595563349
20.009497869018190385759 612.45690757478098476 20.009497869018190385759 163.87960099749392384
21.009497869018204596614 619.06120935680746697 21.009497869018204596614 161.95644086917698701
22.009497869018190385759 625.22482029888976740 22.009497869018190385759 159.94062644414773899
23.009497869018190385759 630.99563995003882155 23.009497869018190385759 157.78252991897258539
24.009497869018204596614 636.40584560327715735 24.009497869018204596614 155.61796017575755968
25.009497869018190385759 641.48454986112187726 25.009497869018190385759 153.33629420727541515
26.009497869018190385759 646.25813089444329762 26.009497869018190385759 150.71252051288865914
27.009497869018204596614 650.74814731973572179 27.009497869018204596614 148.03039374930708050
28.009497869018190385759 654.96081480217253556 28.009497869018190385759 145.23952749428306674
29.009497869018190385759 658.90672531277675716 29.009497869018190385759 142.41139127273163467
30.009497869018190385759 662.60682847478233271 30.009497869018190385759 139.57726768799514616
31.009497869018190385759 666.06995990769587479 31.009497869018190385759 136.66621173376901766
32.009497869018190385759 669.32627342825537653 32.009497869018190385759 133.74330062865598734
33.009497869018190385759 672.39996076596742114 33.009497869018190385759 130.86937165994640964
34.009497869018190385759 675.30312591451786375 34.009497869018190385759 127.97155121700731684
35.009497869018190385759 678.04346029482621816 35.009497869018190385759 124.95747563542302316
36.009497869018190385759 680.63135299613793450 36.009497869018190385759 122.15295494657456743
37.009497869018190385759 683.07281960606042048 37.009497869018190385759 119.36775162711994369
38.009497869018190385759 685.37343450416801716 38.009497869018190385759 116.55823174963816768
39.009497869018190385759 687.53831655470105488 39.009497869018190385759 113.69172960584761256
40.009497869018190385759 689.57993980325068151 40.009497869018190385759 110.71200417738356236
41.009497869018190385759 691.50621106749611045 41.009497869018190385759 107.95810519130185412
42.009497869018190385759 693.32436249743113876 42.009497869018190385759 105.13343446772128686
43.009497869018190385759 695.04145666715237439 43.009497869018190385759 102.40214407020371823
44.009497869018190385759 696.66374406988336432 44.009497869018190385759 99.64969370366009116
46.009497869018190385759 699.64611573030413183 46.009497869018190385759 94.34027820906516126
48.009497869018190385759 702.31175351437400423 48.009497869018190385759 89.26510315208841462
50.009497869018218807469 704.69491167766761919 50.009497869018218807469 84.35178598318127285
52.009497869018190385759 706.82839123440498952 52.009497869018190385759 79.62552717369111122
54.009497869018190385759 708.73909710272175744 54.009497869018190385759 75.12452790890139909
56.009497869018190385759 710.45192633036344887 56.009497869018190385759 70.81006258896785255
58.009497869018190385759 711.98787546898756773 58.009497869018190385759 66.70061010727438600
60.009497869018190385759 713.36680239008398985 60.009497869018190385759 62.79099814344121455
62.009497869018190385759 714.60464008730161822 62.009497869018190385759 59.06625691432407876
64.009497869018190385759 715.71773558996767406 64.009497869018190385759 55.52558865281834954
66.009497869018218807469 716.71830304423019697 66.009497869018218807469 52.20144930545259854
68.009497869018190385759 717.61840676868541777 68.009497869018190385759 49.05906553676212667
70.009497869018190385759 718.42866423298050904 70.009497869018190385759 46.04506910797725538
72.009497869018190385759 719.15777274115259843 72.009497869018190385759 43.24022333545883612
74.009497869018218807469 719.81472296064885086 74.009497869018218807469 40.56752415338645079
76.009497869018190385759 720.40685067067681757 76.009497869018190385759 38.04008394915328495
78.009497869018190385759 720.94063313087178813 78.009497869018190385759 35.64563083563066925
80.009497869018218807469 721.42209336997325408 80.009497869018218807469 33.39823034755654874
82.009497869018190385759 721.85626608597465292 82.009497869018190385759 31.26323899353488756
84.009497869018190385759 722.24766812644168112 84.009497869018190385759 29.18118772358135615
86.009497869018218807469 722.60089347163238926 86.009497869018218807469 27.27468657919331108
88.009497869018190385759 722.91966458795218387 88.009497869018190385759 25.41646515010282670
91.009497869018190385759 723.34042863865784057 91.009497869018190385759 22.84555878007438423
94.009497869018190385759 723.70161112249365942 94.009497869018190385759 20.45428231081903903
97.009497869018190385759 724.01088851761437581 97.009497869018190385759 18.29369314911953737
99.504748934509137825444 724.23405024957810383 99.504748934509137825444 15.54762060630686094
nan nan nan nan

