Time Pressure difference Time.1 Pressure.1 difference.1
(hr) (psi) (hr) (psi)
0.000200000000006639311 0.24159459539420425 0.000200000000006639311 0.19365084325609233
0.000399999999999067768 0.45177182810373712 0.000399999999999067768 0.41279420927589822
0.000600000000019917934 0.64513288800192869 0.000600000000019917934 0.56667840638322775
0.000799999999998135536 0.82648197219795461 0.000799999999998135536 0.70949263635417936
0.001007140329448930061 1.00442644475805976 0.001007140329448930061 0.84782754778312919
0.001267914553963578328 1.21691693924694855 0.001267914553963578328 1.01011524792771290
0.001596209851982166583 1.46959563911824520 0.001596209851982166583 1.19835779110019569
0.002009509145210586212 1.76877203795711746 0.002009509145210586212 1.41553175618296789
0.002529822128153114136 2.12145863921497480 0.002529822128153114136 1.66477198952238425
0.003184857364431081805 2.53540794640832834 0.003184857364431081805 1.94938480636344602
0.004009497869020606231 3.01915416057893671 0.004009497869020606231 2.27287795733786746
0.005047658755856332391 3.58206385540265648 0.005047658755856332391 2.63900950849142735
0.006354625877790454069 4.23440002253031000 0.006354625877790454069 3.05185360244817616
0.007999999999995566213 4.98740280280199055 0.007999999999995566213 3.51587809115770522
0.010071403294347192059 5.85338896164651690 0.010071403294347192059 4.03603678026764001
0.012679145539706837553 6.84587464856101313 0.012679145539706837553 4.61790146893900921
0.015962098519764822413 7.97973504115843379 0.015962098519764822413 5.26786604183798879
0.020095091452077440408 9.27142018734450879 0.020095091452077440408 5.99338175237556925
0.025298221281346400247 10.73922171662162306 0.025298221281346400247 6.80300892208365582
0.031848573644282396344 12.40351069210644042 0.031848573644282396344 7.70592687040500834
0.040094978690177640601 14.28677619600406601 0.040094978690177640601 8.71064626212584336
0.050476587558421215363 16.41326702355927480 0.050476587558421215363 9.82306715162883393
0.063546258777947173257 18.80813200733194535 0.063546258777947173257 11.04464583296917723
0.079999999999998294697 21.49621264317024227 0.079999999999998294697 12.37160250824923757
0.100714032943528764008 24.50081242115516034 0.100714032943528764008 13.79533570612886884
0.126791455396883634421 27.84267249290224555 0.126791455396883634421 15.30468586441542023
0.159620985197506115583 31.53977258350100854 0.159620985197506115583 16.88972871110560092
0.200950914520774404082 35.60803783630589692 0.200950914520774404082 18.54228834488050737
0.252982212813464002465 40.06135675401911556 0.252982212813464002465 20.25979978625012379
0.318485736442795541734 44.91403514729645963 0.318485736442795541734 22.05074442858813910
0.400949786901833249431 50.18326964689607195 0.400949786901833249431 23.92209994691366504
0.504765875584169521062 55.88578500617931866 0.504765875584169521062 25.89419915725605748
0.635462587779429100010 62.04703606427900553 0.635462587779429100010 27.99034355316411649
0.800000000000011368684 68.69299164060620910 0.800000000000011368684 30.24307605357894246
1.007140329435344483500 75.86201281308605360 1.007140329435344483500 32.68605881623523857
1.267914553968893187630 83.59276531309318159 1.267914553968893187630 35.34281689453691655
1.596209851975103788391 91.93063733837618656 1.596209851975103788391 38.23113065278410261
2.009509145207672986544 100.91742991906592408 2.009509145207672986544 41.33103175472515289
2.529822128134725289783 110.58292177474334039 2.529822128134725289783 44.58421756158971050
3.184857364427998049905 120.93422312215041359 3.184857364427998049905 47.89074902863247729
4.009497869018190385759 131.94596750494500270 4.009497869018190385759 51.11862986355371419
5.009497869018204596614 143.16273644643760576 5.009497869018204596614 54.02689027303528491
6.009497869018190385759 152.67815876505474648 6.009497869018190385759 56.16293027239276370
7.009497869018190385759 160.91800601030814732 7.009497869018190385759 57.73116808918891252
8.009497869018204596614 168.15706295695812855 8.009497869018204596614 58.86293831754329631
9.009497869018190385759 174.58840598300599822 9.009497869018190385759 59.64598278815989829
10.009497869018190385759 180.35570154790895003 10.009497869018190385759 60.15391353175836997
11.009497869018204596614 185.56462642683828790 11.009497869018204596614 60.51355952314990105
12.009497869018190385759 190.29824793010001827 12.009497869018190385759 60.70178595430305535
13.009497869018190385759 194.62206790662978051 13.009497869018190385759 60.75157860462836368
14.009497869018204596614 198.58909337217798452 14.009497869018204596614 60.68734351360582480
15.009497869018190385759 202.24294327215247336 15.009497869018190385759 60.51209778369103276
16.009497869018190385759 205.62010215273784297 16.009497869018190385759 60.23230995401709009
17.009497869018190385759 208.74764933504047804 17.009497869018190385759 59.80600454499829510
18.009497869018204596614 211.65035104332190485 18.009497869018204596614 59.31271213690765620
19.009497869018190385759 214.34876651390155189 19.009497869018190385759 58.66458743509858209
20.009497869018190385759 216.85974176372346278 20.009497869018190385759 58.02675667972489038
21.009497869018204596614 219.19820372123692209 21.009497869018204596614 57.34580100163716310
22.009497869018190385759 221.38062514664767377 22.009497869018190385759 56.63203813889720806
23.009497869018190385759 223.42396639047291274 23.009497869018190385759 55.86789579784030479
24.009497869018204596614 225.33962084116038227 24.009497869018204596614 55.10146140917129287
25.009497869018190385759 227.13789673654008539 25.009497869018190385759 54.29356539788221880
26.009497869018190385759 228.82813410242022201 26.009497869018190385759 53.36453532446160608
27.009497869018204596614 230.41796644892681911 27.009497869018204596614 52.41484350103016254
28.009497869018190385759 231.90959462893255250 28.009497869018190385759 51.42664902093491719
29.009497869018190385759 233.30676906483012090 29.009497869018190385759 50.42525793024272218
30.009497869018190385759 234.61690763341781008 30.009497869018190385759 49.42174682421870102
31.009497869018190385759 235.84313886527601767 31.009497869018190385759 48.39099537920188965
32.009497869018190385759 236.99613967306592599 32.009497869018190385759 47.35604624300369636
33.009497869018190385759 238.08447590386802517 33.009497869018190385759 46.33844078163408398
34.009497869018190385759 239.11243335952826783 34.009497869018190385759 45.31237578806279487
35.009497869018190385759 240.08273543092317936 35.009497869018190385759 44.24514698519570999
36.009497869018190385759 240.99906070373455691 36.009497869018190385759 43.25211772087894957
37.009497869018190385759 241.86353918704384114 37.009497869018190385759 42.26592838225573701
38.009497869018190385759 242.67814466627174852 38.009497869018190385759 41.27112899706575888
39.009497869018190385759 243.44468963722579247 39.009497869018190385759 40.25615323798889733
40.009497869018190385759 244.16759093033471117 40.009497869018190385759 39.20108719342050563
41.009497869018190385759 244.84964820451136802 41.009497869018190385759 38.22598214426707841
42.009497869018190385759 245.49342223123326789 42.009497869018190385759 37.22581812275437585
43.009497869018190385759 246.10141373826724021 43.009497869018190385759 36.25871835955172173
44.009497869018190385759 246.67583591045874414 44.009497869018190385759 35.28412623996943864
46.009497869018190385759 247.73183893715872728 46.009497869018190385759 33.40415973320980925
48.009497869018190385759 248.67569231580387168 48.009497869018190385759 31.60713346303538174
50.009497869018218807469 249.51952484913329045 50.009497869018218807469 29.86741809812642856
52.009497869018190385759 250.27495077381479405 52.009497869018190385759 28.19393666252124220
54.009497869018190385759 250.95149662718824857 54.009497869018190385759 26.60021549427426990
56.009497869018190385759 251.55797799656747316 56.009497869018190385759 25.07254256976719020
58.009497869018190385759 252.10182937524353974 58.009497869018190385759 23.61746092573899247
60.009497869018190385759 252.59008207077465613 60.009497869018190385759 22.23313913854500257
62.009497869018190385759 253.02837766356495308 62.009497869018190385759 20.91427668292903519
64.009497869018190385759 253.42250433644775853 64.009497869018190385759 19.66059108421221069
66.009497869018218807469 253.77678689423257197 66.009497869018218807469 18.48357439693066695
68.009497869018190385759 254.09549709054473965 68.009497869018190385759 17.37091402169026466
70.009497869018190385759 254.38239437637164997 70.009497869018190385759 16.30371324537561861
72.009497869018190385759 254.64055830732650065 72.009497869018190385759 15.31056887490225904
74.009497869018218807469 254.87317231361748782 74.009497869018218807469 14.36421518492357130
76.009497869018190385759 255.08283385992328363 76.009497869018190385759 13.46929503097570446
78.009497869018190385759 255.27183642491070259 78.009497869018190385759 12.62146316322840889
80.009497869018218807469 255.44231265242933659 80.009497869018218807469 11.82569992918584134
82.009497869018190385759 255.59604523656452102 82.009497869018190385759 11.06973870485368039
84.009497869018190385759 255.73463351007677602 84.009497869018190385759 10.33252259192115297
86.009497869018218807469 255.85970411699639726 86.009497869018218807469 9.65746555406130369
88.009497869018190385759 255.97257511430555610 88.009497869018190385759 8.99950347661803995
91.009497869018190385759 256.12155993634110018 91.009497869018190385759 8.08919275172021557
94.009497869018190385759 256.24944801990335463 94.009497869018190385759 7.24248567536143550
97.009497869018190385759 256.35895746491041791 97.009497869018190385759 6.47746073749436668
99.504748934509137825444 256.43797493530979636 99.504748934509137825444 5.50512688815151119
nan nan nan nan

