Time Pressure difference Time.1 Pressure.1 difference.1
(hr) (psi) (hr) (psi)
0.000200000000006639311 0.31052216007439509 0.000200000000006639311 0.24889993110149042
0.000399999999999067768 0.58066350240422704 0.000399999999999067768 0.53056546783011704
0.000600000000019917934 0.82919097420420818 0.000600000000019917934 0.72835322549544546
0.000799999999998135536 1.06227942247921558 0.000799999999998135536 0.91191272568865700
0.001007140329448930061 1.29099191458816942 0.001007140329448930061 1.08971494614200459
0.001267914553963578328 1.56410649828282144 0.001267914553963578328 1.29830374805694526
0.001596209851982166583 1.88887508659002124 0.001596209851982166583 1.54025237703368112
0.002009509145210586212 2.27340728797946490 0.002009509145210586212 1.81938663762998165
0.002529822128153114136 2.72671629132529869 0.002529822128153114136 2.13973575598554300
0.003184857364431081805 3.25876640950465246 0.003184857364431081805 2.50554934766022175
0.004009497869020606231 3.88052667325131351 0.004009497869020606231 2.92133593363887289
0.005047658755856332391 4.60403596400456649 0.005047658755856332391 3.39192576595728124
0.006354625877790454069 5.44248533155192593 0.006354625877790454069 3.92255535069707895
0.007999999999995566213 6.41032175806826476 0.007999999999995566213 4.51896722955716523
0.010071403294347192059 7.52337601410474566 0.010071403294347192059 5.18752854178492040
0.012679145539706837553 8.79902044166631647 0.012679145539706837553 5.93540073529336532
0.015962098519764822413 10.25637414512006096 0.015962098519764822413 6.77080188662750171
0.020095091452077440408 11.91658041370504684 0.020095091452077440408 7.70330911112248895
0.025298221281346400247 13.80314952626295089 0.025298221281346400247 8.74392501224585139
0.031848573644282396344 15.94226446305323464 0.031848573644282396344 9.90444779308539935
0.040094978690177640601 18.36283049976314885 0.040094978690177640601 11.19581623316462959
0.050476587558421215363 21.09601467581393663 0.050476587558421215363 12.62561368768431969
0.063546258777947173257 24.17414085092232767 0.063546258777947173257 14.19571193517075791
0.079999999999998294697 27.62913786413235684 0.079999999999998294697 15.90125279158259275
0.100714032943528764008 31.49095775168645872 0.100714032943528764008 17.73118076349704708
0.126791455396883634421 35.78625916955159170 0.126791455396883634421 19.67115243668379776
0.159620985197506115583 40.53815150501858255 0.159620985197506115583 21.70841211859682574
0.200950914520774404082 45.76710338614533669 0.200950914520774404082 23.83245130206543649
0.252982212813464002465 51.49096574147701944 0.252982212813464002465 26.03997321229842754
0.318485736442795541734 57.72812586655395251 0.318485736442795541734 28.34187900619685863
0.400949786901833249431 64.50068663549178893 0.400949786901833249431 30.74713710756050489
0.504765875584169521062 71.83014441716419185 0.504765875584169521062 33.28188133756830069
0.635462587779429100010 79.74921638232977728 0.635462587779429100010 35.97606116631468609
0.800000000000011368684 88.29128032193189313 0.800000000000011368684 38.87150409191990974
1.007140329435344483500 97.50564182892327381 1.007140329435344483500 42.01147617302856929
1.267914553968893187630 107.44199806812552822 1.267914553968893187630 45.42621422179673374
1.596209851975103788391 118.15868660782645350 1.596209851975103788391 49.13857138657552781
2.009509145207672986544 129.70943442047089889 2.009509145207672986544 53.12288231298967389
2.529822128134725289783 142.13251617157212081 2.529822128134725289783 57.30421046821040676
3.184857364427998049905 155.43707064115008620 3.184857364427998049905 61.55410393881869169
4.009497869018190385759 169.59049425707627279 4.009497869018190385759 65.70290754796816657
5.009497869018204596614 184.00743647006100900 5.009497869018204596614 69.44090219531335606
6.009497869018190385759 196.23763345594932161 6.009497869018190385759 72.18635994664890632
7.009497869018190385759 206.82833049163525629 7.009497869018190385759 74.20202008005261973
8.009497869018204596614 216.13270916081651762 8.009497869018204596614 75.65668728998359427
9.009497869018190385759 224.39893103291259990 9.009497869018190385759 76.66313637901819789
10.009497869018190385759 231.81165098088584386 10.009497869018190385759 77.31598108116493506
11.009497869018204596614 238.50669563795352701 11.009497869018204596614 77.77823500669987311
12.009497869018190385759 244.59083163350032919 12.009497869018190385759 78.02016292685638632
13.009497869018190385759 250.14824866385268365 13.009497869018190385759 78.08416154946471011
14.009497869018204596614 255.24707678383683174 14.009497869018204596614 78.00160002036945173
15.009497869018190385759 259.94337953711817590 15.009497869018190385759 77.77635622918214153
16.009497869018190385759 264.28405060553620842 16.009497869018190385759 77.41674420602772955
17.009497869018190385759 268.30389511074366737 17.009497869018190385759 76.86881275812460501
18.009497869018204596614 272.03474514501897374 18.009497869018204596614 76.23478274657294662
19.009497869018190385759 275.50302554812708422 19.009497869018190385759 75.40174638632267090
20.009497869018190385759 278.73038854933906805 20.009497869018190385759 74.58194086212478169
21.009497869018204596614 281.73601976850625306 21.009497869018204596614 73.70670676291116763
22.009497869018190385759 284.54109168704570720 22.009497869018190385759 72.78930550417335610
23.009497869018190385759 287.16740348746662903 23.009497869018190385759 71.80715137128753156
24.009497869018204596614 289.62959912149142383 24.009497869018204596614 70.82205126366108061
25.009497869018190385759 291.94092779393912451 25.009497869018190385759 69.78366042494371868
26.009497869018190385759 294.11339426420585141 26.009497869018190385759 68.58957566198810696
27.009497869018204596614 296.15680990265525452 27.009497869018204596614 67.36893429815404488
28.009497869018190385759 298.07400347119283879 28.009497869018190385759 66.09880536984718447
29.009497869018190385759 299.86979539744737622 29.009497869018190385759 64.81171480371254745
30.009497869018190385759 301.55371989770708296 30.009497869018190385759 63.52189937637331241
31.009497869018190385759 303.12979808044116226 31.009497869018190385759 62.19707187067447052
32.009497869018190385759 304.61175300918557696 32.009497869018190385759 60.86684906161282527
33.009497869018190385759 306.01059438940961854 33.009497869018190385759 59.55891812279193687
34.009497869018190385759 307.33183077334183508 34.009497869018190385759 58.24011412529107901
35.009497869018190385759 308.57896254233929767 35.009497869018190385759 56.86840217693741550
36.009497869018190385759 309.75671779211995727 36.009497869018190385759 55.59205908793087758
37.009497869018190385759 310.86783422888055384 37.009497869018190385759 54.32450737315867428
38.009497869018190385759 311.91484876414176597 38.009497869018190385759 53.04588914320267179
39.009497869018190385759 312.90009100346600235 39.009497869018190385759 51.74133816755921345
40.009497869018190385759 313.82923791045897133 40.009497869018190385759 50.38525904399292443
41.009497869018190385759 314.70588789398294693 41.009497869018190385759 49.13195399522512474
42.009497869018190385759 315.53333232025948973 42.009497869018190385759 47.84644058428948199
43.009497869018190385759 316.31478538117346488 43.009497869018190385759 46.60342475031720255
44.009497869018190385759 317.05309168894694949 44.009497869018190385759 45.35077897125754731
46.009497869018190385759 318.41037511807724059 46.009497869018190385759 42.93445314412557678
48.009497869018190385759 319.62351231368450044 48.009497869018190385759 40.62473061819533626
50.009497869018218807469 320.70809245738752224 50.009497869018218807469 38.38866994744780214
52.009497869018190385759 321.67904335769861746 52.009497869018190385759 36.23773991782268666
54.009497869018190385759 322.54860949776929147 54.009497869018190385759 34.18932596670410362
56.009497869018190385759 323.32812157483891724 56.009497869018190385759 32.22580399457108769
58.009497869018190385759 324.02713516241675507 58.009497869018190385759 30.35558378351467113
60.009497869018190385759 324.65468761834438283 60.009497869018190385759 28.57631139997426928
62.009497869018190385759 325.21803008054746442 62.009497869018190385759 26.88117406509034524
64.009497869018190385759 325.72460211543432251 64.009497869018190385759 25.26980871342549051
66.009497869018218807469 326.17996240584358247 66.009497869018218807469 23.75698611248148850
68.009497869018190385759 326.58960144778944823 68.009497869018190385759 22.32688084632235714
70.009497869018190385759 326.95835127337687709 70.009497869018190385759 20.95520492056924056
72.009497869018190385759 327.29017004342256314 72.009497869018190385759 19.67871388532106280
74.009497869018218807469 327.58914942902998746 74.009497869018218807469 18.46236303307179227
76.009497869018190385759 327.85862795828757044 76.009497869018190385759 17.31211983808404398
78.009497869018190385759 328.10155344527424859 78.009497869018190385759 16.22239933948089785
80.009497869018218807469 328.32066698266129379 80.009497869018218807469 15.19960279082675569
82.009497869018190385759 328.51825987178034438 82.009497869018190385759 14.22796386848628636
84.009497869018190385759 328.69638773917654362 84.009497869018190385759 13.28041808644620936
86.009497869018218807469 328.85714131464089860 86.009497869018218807469 12.41276552481654782
88.009497869018190385759 329.00221470023132042 88.009497869018190385759 11.56708516014883692
91.009497869018190385759 329.19370527840959539 91.009497869018190385759 10.39706042440119838
94.009497869018190385759 329.35808016391035835 94.009497869018190385759 9.30878562308703295
97.009497869018190385759 329.49883293760814240 97.009497869018190385759 8.32549708623195173
99.504748934509137825444 329.60039429725696891 99.504748934509137825444 7.07575386776822501
nan nan nan nan

