Time Pressure difference Time.1 Pressure.1 difference.1
(hr) (psi) (hr) (psi)
0.000200000000006639311 0.47135314432817371 0.000200000000006639311 0.37781446940741931
0.000399999999999067768 0.88141074243870332 0.000399999999999067768 0.80536507112329425
0.000600000000019917934 1.25865984200952652 0.000600000000019917934 1.10559447009062017
0.000799999999998135536 1.61247347313549083 0.000799999999998135536 1.38422626746910482
0.001007140329448930061 1.95964467752509108 0.001007140329448930061 1.65411887564604743
0.001267914553963578328 2.37421546936652472 0.001267914553963578328 1.97074358169182040
0.001596209851982166583 2.86719379735749813 0.001596209851982166583 2.33800641087847971
0.002009509145210586212 3.45088953803160958 0.002009509145210586212 2.76171469433968086
0.002529822128153114136 4.13898414624938926 0.002529822128153114136 3.24798454439957984
0.003184857364431081805 4.94660282339607615 0.003184857364431081805 3.80326661068603178
0.004009497869020606231 5.89039586948686011 0.004009497869020606231 4.43440454500788572
0.005047658755856332391 6.98863755074235815 0.005047658755856332391 5.14873036671094031
0.006354625877790454069 8.26135105260236280 0.006354625877790454069 5.95419276327785330
0.007999999999995566213 9.73046598702290311 0.007999999999995566213 6.85950855248924007
0.010071403294347192059 11.42001246984061069 0.010071403294347192059 7.87434265199190797
0.012679145539706837553 13.35636062557869153 0.012679145539706837553 9.00956569012019770
0.015962098519764822413 15.56853205436386034 0.015962098519764822413 10.27765219113636341
0.020095091452077440408 18.08862094187963265 0.020095091452077440408 11.69313961486530218
0.025298221281346400247 20.95231441542604855 0.025298221281346400247 13.27272922262430832
0.031848573644282396344 24.19935659526242233 0.031848573644282396344 15.03432994600631467
0.040094978690177640601 27.87362387520101592 0.040094978690177640601 16.99454616558845998
0.050476587558421215363 32.02242586440814875 0.050476587558421215363 19.16488893848045905
0.063546258777947173257 36.69482815263322095 0.063546258777947173257 21.54819950697444497
0.079999999999998294697 41.93929671304395868 0.079999999999998294697 24.13710345269375779
0.100714032943528764008 47.80129685625949065 0.100714032943528764008 26.91481923068946713
0.126791455396883634421 54.32129474840005656 0.126791455396883634421 29.85957443864334238
0.159620985197506115583 61.53436898855961346 0.159620985197506115583 32.95200673607634911
0.200950914520774404082 69.47158966910402000 0.200950914520774404082 36.17616486883026994
0.252982212813464002465 78.16005337887879989 0.252982212813464002465 39.52704453974448029
0.318485736442795541734 87.62767087815477396 0.318485736442795541734 43.02119302061720418
0.400949786901833249431 97.90799294221510252 0.400949786901833249431 46.67222381573645862
0.504765875584169521062 109.03364970946223877 0.504765875584169521062 50.51980642496354079
0.635462587779429100010 121.05430379111494688 0.635462587779429100010 54.60940226366601280
0.800000000000011368684 134.02062057835851761 0.800000000000011368684 59.00450284804882983
1.007140329435344483500 148.00744286587683973 1.007140329435344483500 63.77078333887969563
1.267914553968893187630 163.09020782986766562 1.267914553968893187630 68.95414131873629060
1.596209851975103788391 179.35746823654372406 1.596209851975103788391 74.58926643208887697
2.009509145207672986544 196.89077825708253044 2.009509145207672986544 80.63720028227356806
2.529822128134725289783 215.74823643083931302 2.529822128134725289783 86.98419391699204084
3.184857364427998049905 235.94371485214938389 3.184857364427998049905 93.43526539591985625
4.009497869018190385759 257.42772334538261703 4.009497869018190385759 99.73288881160191011
5.009497869018204596614 279.31173652518231165 5.009497869018204596614 105.40693001396221007
6.009497869018190385759 297.87640773470332078 6.009497869018190385759 109.57436251991325094
7.009497869018190385759 313.95242094806519617 7.009497869018190385759 112.63400805873457955
8.009497869018204596614 328.07588363648608265 8.009497869018204596614 114.84210155901098460
9.009497869018190385759 340.62348948269470839 9.009497869018190385759 116.36982809102089220
10.009497869018190385759 351.87553299116530070 10.009497869018190385759 117.36080536311358458
11.009497869018204596614 362.03819046388906600 11.009497869018204596614 118.06247780164980554
12.009497869018190385759 371.27352694143434064 12.009497869018190385759 118.42970919614747061
13.009497869018190385759 379.70933709737283834 13.009497869018190385759 118.52685508741615195
14.009497869018204596614 387.44903807770748472 14.009497869018204596614 118.40153186948457176
15.009497869018190385759 394.57773082203812010 15.009497869018190385759 118.05962593532802885
16.009497869018190385759 401.16659699539911799 16.009497869018190385759 117.51375746071921924
17.009497869018190385759 407.26846858738440460 17.009497869018190385759 116.68203192208601138
18.009497869018204596614 412.93166471564529729 18.009497869018204596614 115.71961416912532172
19.009497869018190385759 418.19629662798661229 19.009497869018190385759 114.45511727251222567
20.009497869018190385759 423.09523104910891789 20.009497869018190385759 113.21070395439122080
21.009497869018204596614 427.65759054546799689 21.009497869018204596614 111.88215353921717110
22.009497869018190385759 431.91551361464109959 22.009497869018190385759 110.48959602315103723
23.009497869018190385759 435.90209004711869056 23.009497869018190385759 108.99874770933107015
24.009497869018204596614 439.63954844226390151 24.009497869018204596614 107.50342759080393762
25.009497869018190385759 443.14800026120360599 25.009497869018190385759 105.92721548808719945
26.009497869018190385759 446.44566797503892985 26.009497869018190385759 104.11466978288329699
27.009497869018204596614 449.54744462802153748 27.009497869018204596614 102.26181282477642753
28.009497869018190385759 452.45762410313352575 28.009497869018190385759 100.33383685064247004
29.009497869018190385759 455.18352350688763863 29.009497869018190385759 98.38011417514215395
30.009497869018190385759 457.73961518104863444 30.009497869018190385759 96.42225533140074845
31.009497869018190385759 460.13200291582666068 31.009497869018190385759 94.41125035077716632
32.009497869018190385759 462.38151746013153343 32.009497869018190385759 92.39205563836743806
33.009497869018190385759 464.50487085567334589 33.009497869018190385759 90.40669858549358651
34.009497869018190385759 466.51042473890674955 34.009497869018190385759 88.40483691215709428
35.009497869018190385759 468.40349246897693547 35.009497869018190385759 86.32266429100141636
36.009497869018190385759 470.19125099835247283 36.009497869018190385759 84.38525561105201689
37.009497869018190385759 471.87785599316623575 37.009497869018190385759 82.46119168526551846
38.009497869018190385759 473.46715832583851125 38.009497869018190385759 80.52032948418880665
39.009497869018190385759 474.96269419135984435 39.009497869018190385759 78.54010300322329385
40.009497869018190385759 476.37308086408233976 40.009497869018190385759 76.48166002866192059
41.009497869018190385759 477.70378050274985071 41.009497869018190385759 74.57922164746055671
42.009497869018190385759 478.95978919465397894 42.009497869018190385759 72.62789299453807246
43.009497869018190385759 480.14598588128797019 43.009497869018190385759 70.74107299543665306
44.009497869018190385759 481.26668850541943812 44.009497869018190385759 68.83963534426314368
46.009497869018190385759 483.32695954022034357 46.009497869018190385759 65.17180443626236297
48.009497869018190385759 485.16842564207263422 48.009497869018190385759 61.66579064690188261
50.009497869018218807469 486.81475020998050240 50.009497869018218807469 58.27159092919767147
52.009497869018190385759 488.28859272009401593 52.009497869018190385759 55.00661418019273441
54.009497869018190385759 489.60853952912515297 54.009497869018190385759 51.89725040237372156
56.009497869018190385759 490.79178992413886817 56.009497869018190385759 48.91674731911351159
58.009497869018190385759 491.85284866582099994 58.009497869018190385759 46.07787045165792250
60.009497869018190385759 492.80543389600705950 60.009497869018190385759 43.37704667664255709
62.009497869018190385759 493.66055238684003825 62.009497869018190385759 40.80393462346673061
64.009497869018190385759 494.42949693306957215 64.009497869018190385759 38.35798318158981601
66.009497869018218807469 495.12070526626928313 66.009497869018218807469 36.06161344876674235
68.009497869018190385759 495.74251161469385352 68.009497869018190385759 33.89080343713057175
70.009497869018190385759 496.30225069972220808 70.009497869018190385759 31.80868549602101680
72.009497869018190385759 496.80593076097989069 72.009497869018190385759 29.87105224296493233
74.009497869018218807469 497.25976269832580101 74.009497869018218807469 28.02470801208431439
76.009497869018190385759 497.66881418780423019 76.009497869018190385759 26.27871105467017898
78.009497869018190385759 498.03755982612256048 78.009497869018190385759 24.62458375073669714
80.009497869018218807469 498.37016041986936443 80.009497869018218807469 23.07204280132222962
82.009497869018190385759 498.67009402061728451 82.009497869018190385759 21.59715591696236814
84.009497869018190385759 498.94048094040925889 84.009497869018190385759 20.15884090700467013
86.009497869018218807469 499.18449477581134488 86.009497869018218807469 18.84179878991211154
88.009497869018190385759 499.40470706739148454 88.009497869018190385759 17.55810908838735784
91.009497869018190385759 499.69537774323606527 91.009497869018190385759 15.78208499399015885
94.009497869018190385759 499.94488849992671931 94.009497869018190385759 14.13015216778009098
97.009497869018190385759 500.15854237390300341 97.009497869018190385759 12.63758189995298586
99.504748934509137825444 500.31270614180044731 99.504748934509137825444 10.74055015354055698
nan nan nan nan

