Time Pressure difference Time.1 Pressure.1 difference.1
(hr) (psi) (hr) (psi)
0.000200000000006639311 0.09051094351944251 0.000200000000006639311 0.07254930727173488
0.000399999999999067768 0.16925169352589575 0.000399999999999067768 0.15464912739442874
0.000600000000019917934 0.24169243642723556 0.000600000000019917934 0.21230026752109396
0.000799999999998135536 0.30963301552084754 0.000799999999998135536 0.26580415771194038
0.001007140329448930061 0.37629809169610318 0.001007140329448930061 0.31762991703690718
0.001267914553963578328 0.45590548156225735 0.001267914553963578328 0.37842934360404229
0.001596209851982166583 0.55056897142758465 0.001596209851982166583 0.44895248657932407
0.002009509145210586212 0.66265234851419386 0.002009509145210586212 0.53031449078900816
0.002529822128153114136 0.79478277549840559 0.002529822128153114136 0.62368979434556182
0.003184857364431081805 0.94986464851032482 0.003184857364431081805 0.73031707443010940
0.004009497869020606231 1.13109521866069684 0.004009497869020606231 0.85151047393061319
0.005047658755856332391 1.34198357695200388 0.005047658755856332391 0.98867791384405046
0.006354625877790454069 1.58637464821020280 0.006354625877790454069 1.14334573002381235
0.007999999999995566213 1.86847943620823864 0.007999999999995566213 1.31718775749424122
0.010071403294347192059 2.19291229110676422 0.010071403294347192059 1.51205988886107567
0.012679145539706837553 2.56473690003726684 0.012679145539706837553 1.73004954167743819
0.015962098519764822413 2.98952609611122844 0.015962098519764822413 1.97355211942057207
0.020095091452077440408 3.47344272148353328 0.020095091452077440408 2.24535915795050123
0.025298221281346400247 4.02333954801386362 0.025298221281346400247 2.54867769415237833
0.031848573644282396344 4.64684838609174999 0.031848573644282396344 2.88694666614596862
0.040094978690177640601 5.35239454028970751 0.040094978690177640601 3.26335450742466771
0.050476587558421215363 6.14906257366773978 0.050476587558421215363 3.68011161300215628
0.063546258777947173257 7.04627423905807770 0.063546258777947173257 4.13776356854753047
0.079999999999998294697 8.05333614873813097 0.079999999999998294697 4.63489431144784092
0.100714032943528764008 9.17897871685928202 0.100714032943528764008 5.16828138846326546
0.126791455396883634421 10.43097240368095591 0.126791455396883634421 5.73374398378675654
0.159620985197506115583 11.81605312926550688 0.159620985197506115583 6.32756407044302094
0.200950914520774404082 13.34018708564774336 0.200950914520774404082 6.94667863064687641
0.252982212813464002465 15.00857745827805445 0.252982212813464002465 7.59012672107353303
0.318485736442795541734 16.82658377276236195 0.318485736442795541734 8.26108580898114830
0.400949786901833249431 18.80064857088325425 0.400949786901833249431 8.96217000893019211
0.504765875584169521062 20.93703761038418421 0.504765875584169521062 9.70099680243022355
0.635462587779429100010 23.24528728632930807 0.635462587779429100010 10.48629585565226385
0.800000000000011368684 25.73512655123575499 0.800000000000011368684 11.33025904024571240
1.007140329435344483500 28.42092699049333504 1.007140329435344483500 12.24549753922357453
1.267914553968893187630 31.31717432478995278 1.267914553968893187630 13.24082477316945194
1.596209851975103788391 34.44087277806600866 1.596209851975103788391 14.32290197366551432
2.009509145207672986544 37.80768267861259346 2.009509145207672986544 15.48424820782210354
2.529822128134725289783 41.42876031906811107 2.529822128134725289783 16.70302098849182215
3.184857364427998049905 45.30676946939352945 3.184857364427998049905 17.94177917499199282
4.009497869018190385759 49.43220684623300087 4.009497869018190385759 19.15107170680686366
5.009497869018204596614 53.63445457647518566 5.009497869018204596614 20.24062171612272820
6.009497869018190385759 57.19931020016460366 6.009497869018190385759 21.04086724902322558
7.009497869018190385759 60.28628467244973166 7.009497869018190385759 21.62839150315434722
8.009497869018204596614 62.99832329799584585 8.009497869018204596614 22.05239764057818164
9.009497869018190385759 65.40776016654402270 9.009497869018190385759 22.34575724052099943
10.009497869018190385759 67.56841844734340441 10.009497869018190385759 22.53604829720054425
11.009497869018204596614 69.51988886308062376 11.009497869018204596614 22.67078598849996141
12.009497869018190385759 71.29329173173776724 12.009497869018190385759 22.74130309527204119
13.009497869018190385759 72.91316665089875926 13.009497869018190385759 22.75995740231034148
14.009497869018204596614 74.39937215672372872 14.009497869018204596614 22.73589238261889633
15.009497869018190385759 75.76824964086404179 15.009497869018190385759 22.67023836276609217
16.009497869018190385759 77.03346766529082856 16.009497869018190385759 22.56541871476144578
17.009497869018190385759 78.20517122062034332 17.009497869018190385759 22.40570775461031516
18.009497869018204596614 79.29263871940013075 18.009497869018204596614 22.22090080057059325
19.009497869018190385759 80.30357246918501346 19.009497869018190385759 21.97808751170840225
20.009497869018190385759 81.24428365787910877 20.009497869018190385759 21.73913074456552152
21.009497869018204596614 82.12036450651527275 21.009497869018204596614 21.48401766631939580
22.009497869018190385759 82.93798636617924558 22.009497869018190385759 21.21661371197878410
23.009497869018190385759 83.70350325867862296 23.009497869018190385759 20.93033560149636685
24.009497869018204596614 84.42118360043471625 24.009497869018204596614 20.64319879882498299
25.009497869018190385759 85.09488926729169123 25.009497869018190385759 20.34052882341408974
26.009497869018190385759 85.72811940436493217 26.009497869018190385759 19.99247721089339791
27.009497869018204596614 86.32373382812821205 27.009497869018204596614 19.63668488511216381
28.009497869018190385759 86.88255706559432667 28.009497869018190385759 19.26646793291509852
29.009497869018190385759 87.40599417414385641 29.009497869018190385759 18.89130700556643916
30.009497869018190385759 87.89682418543030451 30.009497869018190385759 18.51535183616262614
31.009497869018190385759 88.35621917142904636 31.009497869018190385759 18.12919135243874891
32.009497869018190385759 88.78817912823795666 32.009497869018190385759 17.74145824665844628
33.009497869018190385759 89.19591316283239735 33.009497869018190385759 17.36022277121738000
34.009497869018190385759 89.58102690702787640 34.009497869018190385759 16.97581801858260064
35.009497869018190385759 89.94454065135450094 35.009497869018190385759 16.57599166592346407
36.009497869018190385759 90.28783254030400940 36.009497869018190385759 16.20396341128029860
37.009497869018190385759 90.61170055998761086 37.009497869018190385759 15.83449766482203280
38.009497869018190385759 90.91688416892024804 38.009497869018190385759 15.46180625250302221
39.009497869018190385759 91.20406240011340060 39.009497869018190385759 15.08155596812264143
40.009497869018190385759 91.47488997390060206 40.009497869018190385759 14.68628626842843055
41.009497869018190385759 91.73041575385151702 41.009497869018190385759 14.32097313762167268
42.009497869018190385759 91.97159910680208839 42.009497869018190385759 13.94627191918752018
43.009497869018190385759 92.19937690482633741 43.009497869018190385759 13.58395788686375916
44.009497869018190385759 92.41457829498452270 44.009497869018190385759 13.21883691987327758
46.009497869018190385759 92.81019902544851163 46.009497869018190385759 12.51452670120252186
48.009497869018190385759 93.16380403762104834 48.009497869018190385759 11.84128919364438026
50.009497869018218807469 93.47993726336406439 50.009497869018218807469 11.18952263042200634
52.009497869018190385759 93.76294985762514500 52.009497869018190385759 10.56256993120392274
54.009497869018190385759 94.01641084015696492 54.009497869018190385759 9.96549860016038913
56.009497869018190385759 94.24362288055841930 56.009497869018190385759 9.39317156792430730
58.009497869018190385759 94.44737123568202719 58.009497869018190385759 8.84804011627109332
60.009497869018190385759 94.63029011297032866 60.009497869018190385759 8.32941812106873414
62.009497869018190385759 94.79449307280532366 62.009497869018190385759 7.83531979475727614
64.009497869018190385759 94.94214859866919198 64.009497869018190385759 7.36563931108814796
66.009497869018218807469 95.07487693443870569 66.009497869018218807469 6.92468205072330356
68.009497869018190385759 95.19427844890724089 68.009497869018190385759 6.50783522426436445
70.009497869018190385759 95.30176158192598734 70.009497869018190385759 6.10801937146637020
72.009497869018190385759 95.39848005749983884 72.009497869018190385759 5.73594799347923257
74.009497869018218807469 95.48562651518811606 74.009497869018218807469 5.38140626524514154
76.009497869018190385759 95.56417406855915431 76.009497869018190385759 5.04613358509176191
78.009497869018190385759 95.63498194593196899 78.009497869018190385759 4.72850204962447584
80.009497869018218807469 95.69884912050666514 80.009497869018218807469 4.43037749508403245
82.009497869018190385759 95.75644346038440347 82.009497869018190385759 4.14716435628524049
84.009497869018190385759 95.80836413922186523 84.009497869018190385759 3.87097388169956780
86.009497869018218807469 95.85522056256348833 86.009497869018218807469 3.61807066866850047
88.009497869018190385759 95.89750652697325961 88.009497869018190385759 3.37157190766670123
91.009497869018190385759 95.95332216635257794 91.009497869018190385759 3.03053330756088712
94.009497869018190385759 96.00123412849404758 94.009497869018190385759 2.71332316368007653
97.009497869018190385759 96.04226072172436091 97.009497869018190385759 2.42671439733218364
99.504748934509137825444 96.07186380861750763 99.504748934509137825444 2.06243946818356338
nan nan nan nan

