Time Pressure difference Time.1 Pressure.1 difference.1
(hr) (psi) (hr) (psi)
0.000200000000006639311 0.69693426509970735 0.000200000000006639311 0.55862966599235853
0.000399999999999067768 1.30323804014939726 0.000399999999999067768 1.19079828093710138
0.000600000000019917934 1.86103176048971375 0.000600000000019917934 1.63471205991242363
0.000799999999998135536 2.38417421951052644 0.000799999999998135536 2.04669201438194071
0.001007140329448930061 2.89749530605999439 0.001007140329448930061 2.44575036118418554
0.001267914553963578328 3.51047220802938176 0.001267914553963578328 2.91390594575112605
0.001596209851982166583 4.23938107999240188 0.001596209851982166583 3.45693414666079546
0.002009509145210586212 5.10242308355929275 0.002009509145210586212 4.08342157907536230
0.002529822128153114136 6.11982737133772225 0.002529822128153114136 4.80241141646082603
0.003184857364431081805 7.31395779352950015 0.003184857364431081805 5.62344147311184273
0.004009497869020606231 8.70943318368736641 0.004009497869020606231 6.55663064926572137
0.005047658755856332391 10.33327354253042962 0.005047658755856332391 7.61281993659918843
0.006354625877790454069 12.21508479121856183 0.006354625877790454069 8.80376212118335566
0.007999999999995566213 14.38729165880343785 0.007999999999995566213 10.14234573270565676
0.010071403294347192059 16.88542464152208566 0.010071403294347192059 11.64286114423028096
0.012679145539706837553 19.74847413028695442 0.012679145539706837553 13.32138147091627367
0.015962098519764822413 23.01935094005645865 0.015962098519764822413 15.19635131953840457
0.020095091452077440408 26.74550895542320816 0.020095091452077440408 17.28926551621885821
0.025298221281346400247 30.97971451970675361 0.025298221281346400247 19.62481824497331218
0.031848573644282396344 35.78073257290647291 0.031848573644282396344 22.22948932932395749
0.040094978690177640601 41.21343796023074901 0.040094978690177640601 25.12782970716994058
0.050476587558421215363 47.34778181724159651 0.050476587558421215363 28.33685942011660330
0.063546258777947173257 54.25631164074719948 0.063546258777947173257 31.86077947781598496
0.079999999999998294697 62.01068834528360441 0.079999999999998294697 35.68868619814837473
0.100714032943528764008 70.67813611981647171 0.100714032943528764008 39.79576669116713816
0.126791455396883634421 80.31848750834336670 0.126791455396883634421 44.14982867515802667
0.159620985197506115583 90.98360909534440566 0.159620985197506115583 48.72224334241126087
0.200950914520774404082 102.71944055948763719 0.200950914520774404082 53.48942545598094966
0.252982212813464002465 115.56604642874103206 0.252982212813464002465 58.44397575226620489
0.318485736442795541734 129.56469505027018840 0.318485736442795541734 63.61036072915484141
0.400949786901833249431 144.76499399580106342 0.400949786901833249431 69.00870906876247091
0.504765875584169521062 161.21518959995822229 0.504765875584169521062 74.69767537871271657
0.635462587779429100010 178.98871210473566862 0.635462587779429100010 80.74447808852241337
0.800000000000011368684 198.16047444451530168 0.800000000000011368684 87.24299460989199417
1.007140329435344483500 218.84113782679867199 1.007140329435344483500 94.29033105202152854
1.267914553968893187630 241.14224230088262857 1.267914553968893187630 101.95435075340476772
1.596209851975103788391 265.19472039110826245 1.596209851975103788391 110.28634519722446328
2.009509145207672986544 291.11915662531697535 2.009509145207672986544 119.22871120023019387
2.529822128134725289783 319.00145445682437639 2.529822128134725289783 128.61326161138705970
3.184857364427998049905 348.86212491433013838 3.184857364427998049905 138.15169964743836317
4.009497869018190385759 380.62799271599408257 4.009497869018190385759 147.46325214241286972
5.009497869018204596614 412.98530023885894025 5.009497869018204596614 155.85278721414502456
6.009497869018190385759 440.43468854126746237 6.009497869018190385759 162.01467781747882668
7.009497869018190385759 464.20439197786299701 7.009497869018190385759 166.53861457428848780
8.009497869018204596614 485.08708939456795406 8.009497869018204596614 169.80346183245197267
9.009497869018190385759 503.63975328238899465 9.009497869018190385759 172.06233075201168958
10.009497869018190385759 520.27682204454424664 10.009497869018190385759 173.52757188844418579
11.009497869018204596614 535.30314424572077314 11.009497869018204596614 174.56505211144971668
12.009497869018190385759 548.95834633438073524 12.009497869018190385759 175.10803383359467489
13.009497869018190385759 561.43138321192043350 13.009497869018190385759 175.25167199778960025
14.009497869018204596614 572.87516560677283906 14.009497869018204596614 175.06637134616551066
15.009497869018190385759 583.41552223465316729 15.009497869018190385759 174.56083539329890186
16.009497869018190385759 593.15770102273927478 16.009497869018190385759 173.75372410366313147
17.009497869018190385759 602.17981839877666062 17.009497869018190385759 172.52394971049940864
18.009497869018204596614 610.55331813938096275 18.009497869018204596614 171.10093616439357334
19.009497869018190385759 618.33750801272458375 19.009497869018190385759 169.23127384015469943
20.009497869018190385759 625.58098416566917876 20.009497869018190385759 167.39130673315452214
21.009497869018204596614 632.32680670016759450 21.009497869018204596614 165.42693603065939101
22.009497869018190385759 638.62249501958024211 22.009497869018190385759 163.36792558223663718
23.009497869018190385759 644.51697509182542944 23.009497869018190385759 161.16358413152201479
24.009497869018204596614 650.04311372334734642 24.009497869018204596614 158.95263075095235195
25.009497869018190385759 655.23064735814602955 25.009497869018190385759 156.62207194028846402
26.009497869018190385759 660.10651941360993078 26.009497869018190385759 153.94207452387917101
27.009497869018204596614 664.69275047658720723 27.009497869018204596614 151.20247361536365815
28.009497869018190385759 668.99568940507629122 28.009497869018190385759 148.35180308344624223
29.009497869018190385759 673.02615514090769011 29.009497869018190385759 145.46306394286156660
30.009497869018190385759 676.80554622781335183 30.009497869018190385759 142.56820913845223231
31.009497869018190385759 680.34288762000369388 31.009497869018190385759 139.59477341377836979
32.009497869018190385759 683.66897928743230750 32.009497869018190385759 136.60922849927004563
33.009497869018190385759 686.80853135380948515 33.009497869018190385759 133.67371533837382458
34.009497869018190385759 689.77390718411470516 34.009497869018190385759 130.71379874308604485
35.009497869018190385759 692.57296301542965011 35.009497869018190385759 127.63513582761065379
36.009497869018190385759 695.21631056034084395 36.009497869018190385759 124.77051826685831770
37.009497869018190385759 697.71009431190464056 37.009497869018190385759 121.92563201912966520
38.009497869018190385759 700.06000810068599094 38.009497869018190385759 119.05590814427327473
39.009497869018190385759 702.27128048087320167 39.009497869018190385759 116.12798095454434133
40.009497869018190385759 704.35665279903457758 40.009497869018190385759 113.08440426689892888
41.009497869018190385759 706.32420130465675356 41.009497869018190385759 110.27149315968688370
42.009497869018190385759 708.18131312237619568 42.009497869018190385759 107.38629377774390150
43.009497869018190385759 709.93520216716285631 43.009497869018190385759 104.59647572885094746
44.009497869018190385759 711.59225287138087879 44.009497869018190385759 101.78504428302423435
46.009497869018190385759 714.63853249595354100 46.009497869018190385759 96.36185559925941391
48.009497869018190385759 717.36129108968202672 48.009497869018190385759 91.17792679106173637
50.009497869018218807469 719.79551692790334982 50.009497869018218807469 86.15932425424944086
52.009497869018190385759 721.97471390371356392 52.009497869018190385759 81.33178847027021163
54.009497869018190385759 723.92636346920858159 54.009497869018190385759 76.73433922123500395
56.009497869018190385759 725.67589618029990106 56.009497869018190385759 72.32742107301717738
58.009497869018190385759 727.24475851475153831 58.009497869018190385759 68.12990889528741434
60.009497869018190385759 728.65323386987154208 60.009497869018190385759 64.13651953222924362
62.009497869018190385759 729.91759666060090694 62.009497869018190385759 60.33196241963101869
64.009497869018190385759 731.05454420975274843 64.009497869018190385759 56.71542269537874148
66.009497869018218807469 732.07655239517805512 66.009497869018218807469 53.32005179056944399
68.009497869018190385759 732.99594405658581309 68.009497869018190385759 50.11033122683559782
70.009497869018190385759 733.82356418083008975 70.009497869018190385759 47.03174916029104935
72.009497869018190385759 734.56829644274887414 72.009497869018190385759 44.16679954979009892
74.009497869018218807469 735.23932416694844960 74.009497869018218807469 41.43682824238759110
76.009497869018190385759 735.84414032790550664 76.009497869018190385759 38.85522860520656963
78.009497869018190385759 736.38936098367616978 78.009497869018190385759 36.40946578210846951
80.009497869018218807469 736.88113822790137419 80.009497869018218807469 34.11390671214704895
82.009497869018190385759 737.32461464495997916 82.009497869018190385759 31.93316554339635260
84.009497869018190385759 737.72440387200822443 84.009497869018190385759 29.80649888908667222
86.009497869018218807469 738.08519833173886582 86.009497869018218807469 27.85914414874745049
88.009497869018190385759 738.41080025769406348 88.009497869018190385759 25.96110368903359955
91.009497869018190385759 738.84058068091485438 91.009497869018190385759 23.33510646821883228
94.009497869018190385759 739.20950278940415501 94.009497869018190385759 20.89258836033659250
97.009497869018190385759 739.52540755727750366 97.009497869018190385759 18.68570085945781045
99.504748934509137825444 739.75335132635484570 99.504748934509137825444 15.88078390501343762
nan nan nan nan

