Time Pressure difference Time.1 Pressure.1 difference.1
(hr) (psi) (hr) (psi)
0.000200000000006639311 0.43445252889332409 0.000200000000006639311 0.34823667490432741
0.000399999999999067768 0.81240812892429970 0.000399999999999067768 0.74231581149325787
0.000600000000019917934 1.16012369485073052 0.000600000000019917934 1.01904128410125105
0.000799999999998135536 1.48623847450006852 0.000799999999998135536 1.27585995701731392
0.001007140329448930061 1.80623084014129498 0.001007140329448930061 1.52462360177715484
0.001267914553963578328 2.18834631149883529 0.001267914553963578328 1.81646084929940299
0.001596209851982166583 2.64273106285240633 0.001596209851982166583 2.15497193558075573
0.002009509145210586212 3.18073127286813051 0.002009509145210586212 2.54550955578723892
0.002529822128153114136 3.81495732239234675 0.002529822128153114136 2.99371101285869701
0.003184857364431081805 4.55935031284955894 0.003184857364431081805 3.50552195726452531
0.004009497869020606231 5.42925704957134414 0.004009497869020606231 4.08725027486694259
0.005047658755856332391 6.44152116936961772 0.005047658755856332391 4.74565398645144310
0.006354625877790454069 7.61459831140897325 0.006354625877790454069 5.48805950411429855
0.007999999999995566213 8.96870129379954584 0.007999999999995566213 6.32250123597235802
0.010071403294347192059 10.52597899731246756 0.010071403294347192059 7.25788746653316252
0.012679145539706837553 12.31073712017888155 0.012679145539706837553 8.30423780005170542
0.015962098519764822413 14.34972526133389792 0.015962098519764822413 9.47305017321874665
0.020095091452077440408 16.67252506312096116 0.020095091452077440408 10.77772395816240625
0.025298221281346400247 19.31202983046654964 0.025298221281346400247 12.23365293193141667
0.031848573644282396344 22.30487225324040068 0.031848573644282396344 13.85734399750064938
0.040094978690177640601 25.69149379339059536 0.040094978690177640601 15.66410163563840641
0.050476587558421215363 29.51550035360514812 0.050476587558421215363 17.66453574241035085
0.063546258777947173257 33.82211634747876872 0.063546258777947173257 19.86126512902814767
0.079999999999998294697 38.65601351394303009 0.079999999999998294697 22.24749269494963855
0.100714032943528764008 44.05909784092455084 0.100714032943528764008 24.80775066462367207
0.126791455396883634421 50.06866753766858835 0.126791455396883634421 27.52197112217643138
0.159620985197506115583 56.71705502047443304 0.159620985197506115583 30.37230753812649908
0.200950914520774404082 64.03289801110918233 0.200950914520774404082 33.34405742710499965
0.252982212813464002465 72.04117179973465568 0.252982212813464002465 36.43260826115296425
0.318485736442795541734 80.76760210925934302 0.318485736442795541734 39.65321188310950618
0.400949786901833249431 90.24311314023962893 0.400949786901833249431 43.01841604286492071
0.504765875584169521062 100.49778052984409271 0.504765875584169521062 46.56478465166507164
0.635462587779429100010 111.57737897438069297 0.635462587779429100010 50.33422010713086081
0.800000000000011368684 123.52860744593161257 0.800000000000011368684 54.38524339317942236
1.007140329435344483500 136.42044955436799114 1.007140329435344483500 58.77838818827316203
1.267914553968893187630 150.32243675899178470 1.267914553968893187630 63.55595891121335939
1.596209851975103788391 165.31618933471682453 1.596209851975103788391 68.74992947359446305
2.009509145207672986544 181.47687685734047136 2.009509145207672986544 74.32439139754609414
2.529822128134725289783 198.85804953152691610 2.529822128134725289783 80.17450074476076338
3.184857364427998049905 217.47249345308892998 3.184857364427998049905 86.12054003996158258
4.009497869018190385759 237.27459286191839283 4.009497869018190385759 91.92514419267294556
5.009497869018204596614 257.44538196708089117 5.009497869018204596614 97.15498423738910105
6.009497869018190385759 274.55668896079009755 6.009497869018190385759 100.99616279531147711
7.009497869018190385759 289.37416642775872333 7.009497869018190385759 103.81627921514088086
8.009497869018204596614 302.39195183038003734 8.009497869018204596614 105.85150867477527470
9.009497869018190385759 313.95724879941133167 9.009497869018190385759 107.25963475450080864
10.009497869018190385759 324.32840854724838664 10.009497869018190385759 108.17303182656260674
11.009497869018204596614 333.69546654278701681 11.009497869018204596614 108.81977274479982043
12.009497869018190385759 342.20780031234130547 12.009497869018190385759 109.15825485730579203
13.009497869018190385759 349.98319992431407854 13.009497869018190385759 109.24779553108963626
14.009497869018204596614 357.11698635227395471 14.009497869018204596614 109.13228343657070241
15.009497869018190385759 363.68759827614741198 15.009497869018190385759 108.81714414127723956
16.009497869018190385759 369.76064479339595437 16.009497869018190385759 108.31400983085494261
17.009497869018190385759 375.38482185897771615 17.009497869018190385759 107.54739722212950426
18.009497869018204596614 380.60466585312065035 18.009497869018204596614 106.66032384273884759
19.009497869018190385759 385.45714785208809872 19.009497869018190385759 105.49482005620032510
20.009497869018190385759 389.97256155781974485 20.009497869018190385759 104.34782757391450048
21.009497869018204596614 394.17774963127328647 21.009497869018204596614 103.12328479833311690
22.009497869018190385759 398.10233455766035604 22.009497869018190385759 101.83974581749815513
23.009497869018190385759 401.77681564165737882 23.009497869018190385759 100.46561088718254950
24.009497869018204596614 405.22168128208670623 24.009497869018204596614 99.08735423435990697
25.009497869018190385759 408.45546848300006104 25.009497869018190385759 97.63453835238762224
26.009497869018190385759 411.49497314095168576 26.009497869018190385759 95.96389061228830997
27.009497869018204596614 414.35392237501542922 27.009497869018204596614 94.25608744853839482
28.009497869018190385759 417.03627391485275666 28.009497869018190385759 92.47904607799246435
29.009497869018190385759 419.54877203589052215 29.009497869018190385759 90.67827362671890512
30.009497869018190385759 421.90475609006546165 30.009497869018190385759 88.87368881358059980
31.009497869018190385759 424.10985202285945661 31.009497869018190385759 87.02011849170600044
32.009497869018190385759 426.18325981554221471 32.009497869018190385759 85.15899958396053648
33.009497869018190385759 428.14038318159549590 33.009497869018190385759 83.32906930184343253
34.009497869018190385759 429.98892915373386359 34.009497869018190385759 81.48392648919649162
35.009497869018190385759 431.73379512650160450 35.009497869018190385759 79.56475999643262753
36.009497869018190385759 433.38159619345924511 36.009497869018190385759 77.77902437414545034
37.009497869018190385759 434.93616268794050939 37.009497869018190385759 76.00558879114576882
38.009497869018190385759 436.40104401081720198 38.009497869018190385759 74.21667001201450375
39.009497869018190385759 437.77949952054433425 39.009497869018190385759 72.39146864698868455
40.009497869018190385759 439.07947187472285577 40.009497869018190385759 70.49417408845647515
41.009497869018190385759 440.30599561848737267 41.009497869018190385759 68.74067106058402032
42.009497869018190385759 441.46367571265005836 42.009497869018190385759 66.94210521210008835
43.009497869018190385759 442.55700914316645367 43.009497869018190385759 65.20299785694604111
44.009497869018190385759 443.58997581592575443 44.009497869018190385759 63.45041721539172386
46.009497869018190385759 445.48895532215283311 46.009497869018190385759 60.06972816577210494
48.009497869018190385759 447.18625938058096381 48.009497869018190385759 56.83818812949301957
50.009497869018218807469 448.70369886414749772 50.009497869018218807469 53.70970862602562335
52.009497869018190385759 450.06215931660068463 52.009497869018190385759 50.70033566977883055
54.009497869018190385759 451.27877203275346574 54.009497869018190385759 47.83439328076986641
56.009497869018190385759 452.36938982668044673 56.009497869018190385759 45.08722352603667360
58.009497869018190385759 453.34738193127373052 58.009497869018190385759 42.47059255810124512
60.009497869018190385759 454.22539254225756622 60.009497869018190385759 39.98120698112992244
62.009497869018190385759 455.01356674946549674 62.009497869018190385759 37.60953501483492545
64.009497869018190385759 455.72231327361214426 64.009497869018190385759 35.35506869322311019
66.009497869018218807469 456.35940928530578731 66.009497869018218807469 33.23847384347185852
68.009497869018190385759 456.93253655475479036 68.009497869018190385759 31.23760907646894935
70.009497869018190385759 457.44845559324471651 70.009497869018190385759 29.31849298303857765
72.009497869018190385759 457.91270427599926052 72.009497869018190385759 27.53255036870031702
74.009497869018218807469 458.33100727290292298 74.009497869018218807469 25.83075007317668081
76.009497869018190385759 458.70803552908398615 76.009497869018190385759 24.22144120844046000
78.009497869018190385759 459.04791334047342843 78.009497869018190385759 22.69680983819748832
80.009497869018218807469 459.35447577843200406 80.009497869018218807469 21.26581197640335574
82.009497869018190385759 459.63092860984511390 82.009497869018190385759 19.90638891016915224
84.009497869018190385759 459.88014786826488489 84.009497869018190385759 18.58067463215792259
86.009497869018218807469 460.10505870030470987 86.009497869018218807469 17.36673920960879869
88.009497869018190385759 460.30803132947164613 88.009497869018190385759 16.18354515680016448
91.009497869018190385759 460.57594639849236273 91.009497869018190385759 14.54655987629226033
94.009497869018190385759 460.80592381677138292 94.009497869018190385759 13.02395118566436771
97.009497869018190385759 461.00285146427688687 97.009497869018190385759 11.64822910719447968
99.504748934509137825444 461.14494628136407073 99.504748934509137825444 9.89970944728110247
nan nan nan nan

