Time Pressure difference Time.1 Pressure.1 difference.1
(hr) (psi) (hr) (psi)
0.000200000000006639311 0.61199322579684590 0.000200000000006639311 0.49054493147580741
0.000399999999999067768 1.14440183545586449 0.000399999999999067768 1.04566602292079125
0.000600000000019917934 1.63421270476569269 0.000600000000019917934 1.43547642423878163
0.000799999999998135536 2.09359554340634624 0.000799999999998135536 1.79724503560612003
0.001007140329448930061 2.54435402000672806 0.001007140329448930061 2.14766690058031884
0.001267914553963578328 3.08262244840941735 0.001267914553963578328 2.55876456175348599
0.001596209851982166583 3.72269327603728373 0.001596209851982166583 3.03560950540942986
0.002009509145210586212 4.48054934110751013 0.002009509145210586212 3.58574182618106274
0.002529822128153114136 5.37395430510075744 0.002529822128153114136 4.21710253253652922
0.003184857364431081805 6.42254635415827213 0.003184857364431081805 4.93806698787743237
0.004009497869020606231 7.64794382463655698 0.004009497869020606231 5.75752081988468412
0.005047658755856332391 9.07387357031393371 0.005047658755856332391 6.68498374053015709
0.006354625877790454069 10.72633319828283227 0.006354625877790454069 7.73077612839177597
0.007999999999995566213 12.63379557251570517 0.007999999999995566213 8.90621568336490732
0.010071403294347192059 14.82746079909881409 0.010071403294347192059 10.22385109468373443
0.012679145539706837553 17.34156719332890617 0.012679145539706837553 11.69779651641898788
0.015962098519764822413 20.21379568062900134 0.015962098519764822413 13.34424856131294490
0.020095091452077440408 23.48581655526173861 0.020095091452077440408 15.18208230644992618
0.025298221281346400247 27.20396509772451310 0.025298221281346400247 17.23298225507646464
0.031848573644282396344 31.41984408749729596 0.031848573644282396344 19.52020091955620629
0.040094978690177640601 36.19042154549732260 0.040094978690177640601 22.06529701558679335
0.050476587558421215363 41.57712309426109698 0.050476587558421215363 24.88321621406842965
0.063546258777947173257 47.64365427793885033 0.063546258777947173257 27.97764751348676171
0.079999999999998294697 54.45294211339090396 0.079999999999998294697 31.33901615202040603
0.100714032943528764008 62.06401763168699404 0.100714032943528764008 34.94553338814777277
0.126791455396883634421 70.52942109873508514 0.126791455396883634421 38.76893047498892031
0.159620985197506115583 79.89469769711062952 0.159620985197506115583 42.78406783014935399
0.200950914520774404082 90.20018806372590348 0.200950914520774404082 46.97023474106618579
0.252982212813464002465 101.48107373712623769 0.252982212813464002465 51.32093375248950196
0.318485736442795541734 113.77359335583166455 0.318485736442795541734 55.85764943149560224
0.400949786901833249431 127.12130841389524960 0.400949786901833249431 60.59805721422798541
0.504765875584169521062 141.56658507328998553 0.504765875584169521062 65.59366299489359164
0.635462587779429100010 157.17390403602664151 0.635462587779429100010 70.90349274706414917
0.800000000000011368684 174.00904798874020685 0.800000000000011368684 76.60998227981524167
1.007140329435344483500 192.16919095879723045 1.007140329435344483500 82.79840259213479214
1.267914553968893187630 211.75227870377204908 1.267914553968893187630 89.52834596627651820
1.596209851975103788391 232.87328593784630471 1.596209851975103788391 96.84485257578451467
2.009509145207672986544 255.63810057308054979 2.009509145207672986544 104.69733980519713157
2.529822128134725289783 280.12215631123746107 2.529822128134725289783 112.93811883757163628
3.184857364427998049905 306.34346433536080667 3.184857364427998049905 121.31402996013817130
4.009497869018190385759 334.23776782952927533 4.009497869018190385759 129.49070792525563434
5.009497869018204596614 362.65142748247455984 5.009497869018204596614 136.85774221901445458
6.009497869018190385759 386.75533589188222550 6.009497869018190385759 142.26863316839549611
7.009497869018190385759 407.62803251602548471 7.009497869018190385759 146.24120100978979053
8.009497869018204596614 425.96558599183344995 8.009497869018204596614 149.10813481590938068
9.009497869018190385759 442.25708604917082312 9.009497869018190385759 151.09169703398430329
10.009497869018190385759 456.86646011703737713 10.009497869018190385759 152.37835733260982352
11.009497869018204596614 470.06140238959898170 11.009497869018204596614 153.28939141454975470
12.009497869018190385759 482.05233409382691434 12.009497869018190385759 153.76619554418556390
13.009497869018190385759 493.00518066261548711 13.009497869018190385759 153.89232735869836688
14.009497869018204596614 503.05421635200121955 14.009497869018204596614 153.72961080247702625
15.009497869018190385759 512.30993411014992489 15.009497869018190385759 153.28568862208766177
16.009497869018190385759 520.86475444454333683 16.009497869018190385759 152.57694654057931416
17.009497869018190385759 528.78727309942530610 17.009497869018190385759 151.49705474078820089
18.009497869018204596614 536.14022641809776815 18.009497869018204596614 150.24747541308886412
19.009497869018190385759 542.97569384933569836 19.009497869018190385759 148.60568402147450229
20.009497869018190385759 549.33634873289031475 20.009497869018190385759 146.98996864979301336
21.009497869018204596614 555.26000308636093905 21.009497869018204596614 145.26501175919040065
22.009497869018190385759 560.78838473747350690 22.009497869018190385759 143.45694963714885262
23.009497869018190385759 565.96445664906548245 23.009497869018190385759 141.52126918242541365
24.009497869018204596614 570.81707988293942435 24.009497869018204596614 139.57978264743968566
25.009497869018190385759 575.37236666114915806 25.009497869018190385759 137.53326796754603834
26.009497869018190385759 579.65397658797519398 26.009497869018190385759 135.17990360288689544
27.009497869018204596614 583.68124642249767930 27.009497869018204596614 132.77420010779687232
28.009497869018190385759 587.45975123582627475 28.009497869018190385759 130.27096394640284416
29.009497869018190385759 590.99899137748036537 29.009497869018190385759 127.73429890686844601
30.009497869018190385759 594.31775737687109995 30.009497869018190385759 125.19226356913034692
31.009497869018190385759 597.42397424373950798 31.009497869018190385759 122.58122460610506721
32.009497869018190385759 600.34468810554744778 32.009497869018190385759 119.95955229855979951
33.009497869018190385759 603.10159746253600588 33.009497869018190385759 117.38181396846212579
34.009497869018190385759 605.70555885598093937 34.009497869018190385759 114.78264644872390932
35.009497869018190385759 608.16347101954306709 35.009497869018190385759 112.07920518728249704
36.009497869018190385759 610.48465233020942833 36.009497869018190385759 109.56372183473372672
37.009497869018190385759 612.67449840176232101 37.009497869018190385759 107.06556497983513054
38.009497869018190385759 614.73800911139153413 38.009497869018190385759 104.54559766115504260
39.009497869018190385759 616.67977576692067032 39.009497869018190385759 101.97452073830616825
40.009497869018190385759 618.51098682352790092 40.009497869018190385759 99.30188946114301984
41.009497869018190385759 620.23873421258065264 41.009497869018190385759 96.83181067668807884
42.009497869018190385759 621.86950472983880900 42.009497869018190385759 94.29825397666022013
43.009497869018190385759 623.40963307186427755 43.009497869018190385759 91.84845371194802510
44.009497869018190385759 624.86472554839542681 44.009497869018190385759 89.37967425052777060
46.009497869018190385759 627.53973033360966838 46.009497869018190385759 84.61745361813089517
48.009497869018190385759 629.93064422360680510 48.009497869018190385759 80.06533231702623254
50.009497869018218807469 632.06819118843850447 50.009497869018218807469 75.65838763185340099
52.009497869018190385759 633.98179172963455130 52.009497869018190385759 71.41922284252498798
54.009497869018190385759 635.69557791152294612 54.009497869018190385759 67.38210207339216140
56.009497869018190385759 637.23188086162201671 56.009497869018190385759 63.51229083234974127
58.009497869018190385759 638.60953320126532162 58.009497869018190385759 59.82636355540223150
60.009497869018190385759 639.84634622539169868 60.009497869018190385759 56.31968098784166443
62.009497869018190385759 640.95661085381436806 62.009497869018190385759 52.97881615070496508
64.009497869018190385759 641.95498937100160219 64.009497869018190385759 49.80305349574216933
66.009497869018218807469 642.85243711824330148 66.009497869018218807469 46.82150401989065358
68.009497869018190385759 643.65977505068826758 68.009497869018190385759 44.00297817021827740
70.009497869018190385759 644.38652638856103749 70.009497869018190385759 41.29960790399184134
72.009497869018190385759 645.04049208109506708 72.009497869018190385759 38.78383297129420271
74.009497869018218807469 645.62973620654111073 74.009497869018218807469 36.38658543961907554
76.009497869018190385759 646.16083850971926950 76.009497869018190385759 34.11962631765891985
78.009497869018190385759 646.63960869595530312 78.009497869018190385759 31.97194847399934758
80.009497869018218807469 647.07144905327197648 80.009497869018218807469 29.95616783214511258
82.009497869018190385759 647.46087539752215889 82.009497869018190385759 28.04121130134404893
84.009497869018190385759 647.81193906443093056 84.009497869018190385759 26.17373878472246318
86.009497869018218807469 648.12876057302537447 86.009497869018218807469 24.46372398276624693
88.009497869018190385759 648.41467874776526514 88.009497869018190385759 22.79701312953099901
91.009497869018190385759 648.79207834018393442 91.009497869018190385759 20.49106751804631088
94.009497869018190385759 649.11603691497134605 94.009497869018190385759 18.34623892980605575
97.009497869018190385759 649.39343980304397519 97.009497869018190385759 16.40832273273068509
99.504748934509137825444 649.59360221365216148 99.504748934509137825444 13.94526378871809236
nan nan nan nan

