Time Pressure difference Time.1 Pressure.1 difference.1
(hr) (psi) (hr) (psi)
0.000200000000006639311 0.37736101067336797 0.000200000000006639311 0.30247480416369460
0.000399999999999067768 0.70564936839258074 0.000399999999999067768 0.64476790036754139
0.000600000000019917934 1.00767154264278203 0.000600000000019917934 0.88512880766486879
0.000799999999998135536 1.29093149547922614 0.000799999999998135536 1.10819887292208996
0.001007140329448930061 1.56887358230221463 0.001007140329448930061 1.32427242333848993
0.001267914553963578328 1.90077516159033455 0.001267914553963578328 1.57775926333377647
0.001596209851982166583 2.29544909625962212 0.001596209851982166583 1.87178652096918197
0.002009509145210586212 2.76275056072840819 0.002009509145210586212 2.21100349236648031
0.002529822128153114136 3.31363280246258318 0.002529822128153114136 2.60030668104072671
0.003184857364431081805 3.96020491917381534 0.003184857364431081805 3.04486041800861029
0.004009497869020606231 4.71579698856998242 0.004009497869020606231 3.55014366823378680
0.005047658755856332391 5.59503922083066207 0.005047658755856332391 4.12202637925750270
0.006354625877790454069 6.61396199484561453 0.006354625877790454069 4.76687219748389435
0.007999999999995566213 7.79012195711434785 0.007999999999995566213 5.49165972739906749
0.010071403294347192059 9.14275739830666367 0.010071403294347192059 6.30412661355925330
0.012679145539706837553 10.69297999861691295 0.012679145539706837553 7.21297578145516560
0.015962098519764822413 12.46402418532527712 0.015962098519764822413 8.22819422096884701
0.020095091452077440408 14.48158426956980982 0.020095091452077440408 9.36142048930132020
0.025298221281346400247 16.77423103864241938 0.025298221281346400247 10.62602546331222442
0.031848573644282396344 19.37378327124406496 0.031848573644282396344 12.03634686962396039
0.040094978690177640601 22.31536800643862506 0.040094978690177640601 13.60567802326284514
0.050476587558421215363 25.63686088406088359 0.050476587558421215363 15.34323457113206501
0.063546258777947173257 29.37754336591906323 0.063546258777947173257 17.25129118579047471
0.079999999999998294697 33.57621686627744140 0.079999999999998294697 19.32394397542099895
0.100714032943528764008 38.26928049644408247 0.100714032943528764008 21.54775778882376969
0.126791455396883634421 43.48913109842367675 0.126791455396883634421 23.90530184009555725
0.159620985197506115583 49.26385227739926620 0.159620985197506115583 26.38107481677013411
0.200950914520774404082 55.61831846477752350 0.200950914520774404082 28.96230629085082242
0.252982212813464002465 62.57422294143620434 0.252982212813464002465 31.64498986786042067
0.318485736442795541734 70.15391080644000965 0.318485736442795541734 34.44237314205986422
0.400949786901833249431 78.38424250322096043 0.400949786901833249431 37.36535496030895587
0.504765875584169521062 87.29134142175558964 0.504765875584169521062 40.44569436090139192
0.635462587779429100010 96.91496699377297830 0.635462587779429100010 43.71978733664251138
0.800000000000011368684 107.29568146745982915 0.800000000000011368684 47.23846461394751373
1.007140329435344483500 118.49340329882605261 1.007140329435344483500 51.05430512507059149
1.267914553968893187630 130.56852680027810720 1.267914553968893187630 55.20405405429109891
1.596209851975103788391 143.59194650547519245 1.596209851975103788391 59.71548361328237320
2.009509145207672986544 157.62895393698482849 2.009509145207672986544 64.55740406645830376
2.529822128134725289783 172.72606225334547503 2.529822128134725289783 69.63874904432745438
3.184857364427998049905 188.89437732624068644 3.184857364427998049905 74.80341779112046652
4.009497869018190385759 206.09427777429448270 4.009497869018190385759 79.84523742376400435
5.009497869018204596614 223.61441831115038781 5.009497869018204596614 84.38782284721938254
6.009497869018190385759 238.47712406530166618 6.009497869018190385759 87.72423114592760385
7.009497869018190385759 251.34743301898274126 7.009497869018190385759 90.17375534392043335
8.009497869018204596614 262.65454790395193641 8.009497869018204596614 91.94153477841055633
9.009497869018190385759 272.70004623282198963 9.009497869018190385759 93.16461864894141343
10.009497869018190385759 281.70832921892406375 10.009497869018190385759 93.95798597755918991
11.009497869018204596614 289.84445972145920223 11.009497869018204596614 94.51973850589985204
12.009497869018190385759 297.23818552770671886 12.009497869018190385759 94.81374059721110825
13.009497869018190385759 303.99181788297789808 13.009497869018190385759 94.89151470809387945
14.009497869018204596614 310.18815160726353497 14.009497869018204596614 94.79118208753416752
15.009497869018190385759 315.89531773344850762 15.009497869018190385759 94.51745532784016746
16.009497869018190385759 321.17030365067404318 16.009497869018190385759 94.08043802615925699
17.009497869018190385759 326.05540616597096459 17.009497869018190385759 93.41456617691376607
18.009497869018204596614 330.58930912242215072 18.009497869018204596614 92.64406333776355496
19.009497869018190385759 334.80412521767908629 19.009497869018190385759 91.63171870266118901
20.009497869018190385759 338.72616725054217568 20.009497869018190385759 90.63545279657317622
21.009497869018204596614 342.37875048100983122 21.009497869018204596614 89.57182750111626035
22.009497869018190385759 345.78760469591651372 22.009497869018190385759 88.45695870686537887
23.009497869018190385759 348.97922127849085427 23.009497869018190385759 87.26339920008484796
24.009497869018204596614 351.97139624181249928 24.009497869018204596614 86.06625960740878156
25.009497869018190385759 354.78023063747764354 25.009497869018190385759 84.80435863300334631
26.009497869018190385759 357.42031320896762736 26.009497869018190385759 83.35325114080170295
27.009497869018204596614 359.90356719111917982 27.009497869018204596614 81.86987082869841004
28.009497869018190385759 362.23343022732404961 28.009497869018190385759 80.32635092030756141
29.009497869018190385759 364.41576032604592683 29.009497869018190385759 78.76221843859237026
30.009497869018190385759 366.46214391156325973 30.009497869018190385759 77.19477457846262780
31.009497869018190385759 368.37746762241960141 31.009497869018190385759 75.58478240786001834
32.009497869018190385759 370.17840836542285388 32.009497869018190385759 73.96823361299136934
33.009497869018190385759 371.87834564811663540 33.009497869018190385759 72.37877493846015398
34.009497869018190385759 373.48397372007008244 34.009497869018190385759 70.77610281593669583
35.009497869018190385759 374.99954640795493788 35.009497869018190385759 69.10913448408089721
36.009497869018190385759 376.43080951419057101 36.009497869018190385759 67.55806283779941168
37.009497869018190385759 377.78109002702530006 37.009497869018190385759 66.01767487948879420
38.009497869018190385759 379.05347091965211348 38.009497869018190385759 64.46383837582028775
39.009497869018190385759 380.25078323739592179 39.009497869018190385759 62.87848719017285504
40.009497869018190385759 381.37992589118556452 40.009497869018190385759 61.23051659606316122
41.009497869018190385759 382.44527183528867909 41.009497869018190385759 59.70744185069958831
42.009497869018190385759 383.45082089143642179 42.009497869018190385759 58.14522600153565435
43.009497869018190385759 384.40047909550673921 43.009497869018190385759 56.63465518984736491
44.009497869018190385759 385.29770335293551398 44.009497869018190385759 55.11238161977935590
46.009497869018190385759 386.94713747533148762 46.009497869018190385759 52.17594978501358582
48.009497869018190385759 388.42139837223538734 48.009497869018190385759 49.36906725350195302
50.009497869018218807469 389.73943074417940124 50.009497869018218807469 46.65170204375943541
52.009497869018190385759 390.91937556025254707 52.009497869018190385759 44.03779155932712541
54.009497869018190385759 391.97611288742371016 54.009497869018190385759 41.54846339451485449
56.009497869018190385759 392.92341231740510921 56.009497869018190385759 39.16229992165365559
58.009497869018190385759 393.77288622876659474 58.009497869018190385759 36.88952110014562891
60.009497869018190385759 394.53551724023014913 60.009497869018190385759 34.72726632014810377
62.009497869018190385759 395.22011727277293858 62.009497869018190385759 32.66725637506495161
64.009497869018190385759 395.83572723445155361 64.009497869018190385759 30.70905005084443573
66.009497869018218807469 396.38910229589060918 66.009497869018218807469 28.87059747301562140
68.009497869018190385759 396.88691476390556545 68.009497869018190385759 27.13266685808681089
70.009497869018190385759 397.33503674926066651 70.009497869018190385759 25.46574230257517613
72.009497869018190385759 397.73827839357625180 72.009497869018190385759 23.91449086512111322
74.009497869018218807469 398.10161208639965480 74.009497869018218807469 22.43632458279128272
76.009497869018190385759 398.42909496276206482 76.009497869018190385759 21.03849540861335043
78.009497869018190385759 398.72430934380867029 78.009497869018190385759 19.71421623766512710
80.009497869018218807469 398.99058633318935563 80.009497869018218807469 18.47126617181189090
82.009497869018190385759 399.23071042714116174 82.009497869018190385759 17.29048523928154069
84.009497869018190385759 399.44717971890958097 84.009497869018190385759 16.13898341447050200
86.009497869018218807469 399.64253496084160133 86.009497869018218807469 15.08457155706405572
88.009497869018190385759 399.81883490476542420 88.009497869018190385759 14.05686133811809135
91.009497869018190385759 400.05154318586994577 91.009497869018190385759 12.63499271306154625
94.009497869018190385759 400.25129921264442601 94.009497869018190385759 11.31247042088155119
97.009497869018190385759 400.42234854749693795 97.009497869018190385759 10.11753233349264036
99.504748934509137825444 400.54577064823604360 99.504748934509137825444 8.59878609042685582
nan nan nan nan

