Time Pressure difference Time.1 Pressure.1 difference.1
(hr) (psi) (hr) (psi)
0.000200000000006639311 0.15804603214548807 0.000200000000006639311 0.12668225192833704
0.000399999999999067768 0.29553949561829490 0.000399999999999067768 0.27004116860411786
0.000600000000019917934 0.42203217745371130 0.000600000000019917934 0.37070892867144872
0.000799999999998135536 0.54066688094794146 0.000799999999998135536 0.46413495231238822
0.001007140329448930061 0.65707436011550313 0.001007140329448930061 0.55463070128752268
0.001267914553963578328 0.79608111011255711 0.001267914553963578328 0.66079585383167383
0.001596209851982166583 0.96137812703124381 0.001596209851982166583 0.78394011118081974
0.002009509145210586212 1.15709294702093857 0.002009509145210586212 0.92601068776234507
0.002529822128153114136 1.38781300029336951 0.002529822128153114136 1.08905833320340428
0.003184857364431081805 1.65860980932187463 0.003184857364431081805 1.27524596842796045
0.004009497869020606231 1.97506626643060135 0.004009497869020606231 1.48686828909422442
0.005047658755856332391 2.34330978437003745 0.005047658755856332391 1.72638374186614985
0.006354625877790454069 2.77005419341320014 0.006354625877790454069 1.99645754396465702
0.007999999999995566213 3.26265255399438558 0.007999999999995566213 2.30001246885532851
0.010071403294347192059 3.82916223139411871 0.010071403294347192059 2.64028919054972411
0.012679145539706837553 4.47842520237276620 0.012679145539706837553 3.02093266123675797
0.015962098519764822413 5.22017249090191537 0.015962098519764822413 3.44612562391130695
0.020095091452077440408 6.06516536751355506 0.020095091452077440408 3.92074252965202907
0.025298221281346400247 7.02536982614728611 0.025298221281346400247 4.45038335825069087
0.031848573644282396344 8.11411218186790251 0.031848573644282396344 5.04105302473180661
0.040094978690177640601 9.34610431265971897 0.040094978690177640601 5.69831902450307393
0.050476587558421215363 10.73720926325059111 0.050476587558421215363 6.42604104731915005
0.063546258777947173257 12.30387886358602856 0.063546258777947173257 7.22517176969453434
0.079999999999998294697 14.06236389048889102 0.079999999999998294697 8.09323852845122893
0.100714032943528764008 16.02790899020812887 0.100714032943528764008 9.02461442447047091
0.126791455396883634421 18.21408258181213213 0.126791455396883634421 10.01199911015072175
0.159620985197506115583 20.63264661802515576 0.159620985197506115583 11.04890033838896635
0.200950914520774404082 23.29401898801567938 0.200950914520774404082 12.12996960889877585
0.252982212813464002465 26.20728525407013976 0.252982212813464002465 13.25352896679762971
0.318485736442795541734 29.38180397243889175 0.318485736442795541734 14.42512675875938832
0.400949786901833249431 32.82882481223460758 0.400949786901833249431 15.64932763097810131
0.504765875584169521062 36.55928875044007498 0.504765875584169521062 16.93943287808969700
0.635462587779429100010 40.58984779997502557 0.635462587779429100010 18.31068584025433665
0.800000000000011368684 44.93749020869627486 0.800000000000011368684 19.78437540104443570
1.007140329435344483500 49.62731097570758720 1.007140329435344483500 21.38252262618270549
1.267914553968893187630 54.68460439790245431 1.267914553968893187630 23.12051710391896364
1.596209851975103788391 60.13906246631525931 1.596209851975103788391 25.00999036940054765
2.009509145207672986544 66.01803052342353340 2.009509145207672986544 27.03787956288936556
2.529822128134725289783 72.34098917252660499 2.529822128134725289783 29.16604434144341695
3.184857364427998049905 79.11258976578716329 3.184857364427998049905 31.32910671325524987
4.009497869018190385759 86.31623810842224032 4.009497869018190385759 33.44071751880890986
5.009497869018204596614 93.65400914507590358 5.009497869018204596614 35.34323945815276602
6.009497869018190385759 99.87879550336434420 6.009497869018190385759 36.74059127329440599
7.009497869018190385759 105.26912785112376980 7.009497869018190385759 37.76649900935412774
8.009497869018204596614 110.00476452803889060 8.009497869018204596614 38.50687895700959018
9.009497869018190385759 114.21201198311919711 9.009497869018190385759 39.01912995075590374
10.009497869018190385759 117.98485375036119649 10.009497869018190385759 39.35140741126556208
11.009497869018204596614 121.39242132245617256 11.009497869018204596614 39.58668014914993449
12.009497869018190385759 124.48905556234210223 12.009497869018190385759 39.70981386635963872
13.009497869018190385759 127.31760638272322694 13.009497869018190385759 39.74238715634190555
14.009497869018204596614 129.91274984289452732 14.009497869018204596614 39.70036592964991939
15.009497869018190385759 132.30302052673951607 15.009497869018190385759 39.58572391036848614
16.009497869018190385759 134.51228584631550689 16.009497869018190385759 39.40269267885268079
17.009497869018190385759 136.55826051600629967 17.009497869018190385759 39.12381277151185799
18.009497869018204596614 138.45714607156793363 18.009497869018204596614 38.80111139791942065
19.009497869018190385759 140.22239192696153509 19.009497869018190385759 38.37712203967544156
20.009497869018190385759 141.86501838721969193 20.009497869018190385759 37.95986676166440787
21.009497869018204596614 143.39479033060743518 21.009497869018204596614 37.51440007888079720
22.009497869018190385759 144.82248388555913721 22.009497869018190385759 37.04747163553218314
23.009497869018190385759 146.15919415169267381 23.009497869018190385759 36.54758601184365574
24.009497869018204596614 147.41237444075909480 24.009497869018204596614 36.04620097948669866
25.009497869018190385759 148.58876818211700765 25.009497869018190385759 35.51769263780767716
26.009497869018190385759 149.69448542146798786 26.009497869018190385759 34.90994097594462175
27.009497869018204596614 150.73451983834692669 27.009497869018204596614 34.28867283784970255
28.009497869018190385759 151.71031118376853897 28.009497869018190385759 33.64221708285943890
29.009497869018190385759 152.62431290408196105 29.009497869018190385759 32.98712838664292946
30.009497869018190385759 153.48137761609754648 30.009497869018190385759 32.33065282160704612
31.009497869018190385759 154.28355193780302557 31.009497869018190385759 31.65635720771997086
32.009497869018190385759 155.03782047776937247 32.009497869018190385759 30.97931555378051627
33.009497869018190385759 155.74978683048425410 33.009497869018190385759 30.31361976204880904
34.009497869018190385759 156.42225467611794443 34.009497869018190385759 29.64238992475577561
35.009497869018190385759 157.05700559890362911 35.009497869018190385759 28.94423160126635253
36.009497869018190385759 157.65644605114624710 36.009497869018190385759 28.29461303354329260
37.009497869018190385759 158.22196943936299363 37.009497869018190385759 27.64946899934308888
38.009497869018190385759 158.75486697188381413 38.009497869018190385759 26.99869245629373893
39.009497869018190385759 159.25632434481340738 39.009497869018190385759 26.33471695972184179
40.009497869018190385759 159.72923095442641284 40.009497869018190385759 25.64451525333272031
41.009497869018190385759 160.17541827787920283 41.009497869018190385759 25.00662232492399895
42.009497869018190385759 160.59656151726213125 42.009497869018190385759 24.35233635119666573
43.009497869018190385759 160.99429659535061887 43.009497869018190385759 23.71968031013902589
44.009497869018190385759 161.37007133047299590 44.009497869018190385759 23.08212292931718324
46.009497869018190385759 162.06088599059086164 46.009497869018190385759 21.85228893209978551
48.009497869018190385759 162.67833474261519200 48.009497869018190385759 20.67671266890210902
50.009497869018218807469 163.23035199064341327 50.009497869018218807469 19.53862797773688698
52.009497869018190385759 163.72453552062236781 52.009497869018190385759 18.44387211064069731
54.009497869018190385759 164.16711739012026783 54.009497869018190385759 17.40129370951083487
56.009497869018190385759 164.56386456835971899 56.009497869018190385759 16.40192266091398565
58.009497869018190385759 164.91964054230629699 58.009497869018190385759 15.45003927995029258
60.009497869018190385759 165.23904504341743404 60.009497869018190385759 14.54444548832771034
62.009497869018190385759 165.52576867328312460 62.009497869018190385759 13.68167379546078166
64.009497869018190385759 165.78359793767620545 64.009497869018190385759 12.86153941243853538
66.009497869018218807469 166.01536203167376016 66.009497869018218807469 12.09156019626300171
68.009497869018190385759 166.22385544539957891 68.009497869018190385759 11.36368150698469570
70.009497869018190385759 166.41153753151689898 70.009497869018190385759 10.66554151786819915
72.009497869018190385759 166.58042286963433298 72.009497869018190385759 10.01584765015219958
74.009497869018218807469 166.73259399190538943 74.009497869018218807469 9.39676324777420824
76.009497869018190385759 166.86975010433025091 76.009497869018190385759 8.81132556781407850
78.009497869018190385759 166.99339155174274651 78.009497869018190385759 8.25669204049812322
80.009497869018218807469 167.10491346426931614 80.009497869018218807469 7.73612070295442500
82.009497869018190385759 167.20548204236354195 82.009497869018190385759 7.24158699135961204
84.009497869018190385759 167.29614353541049354 84.009497869018190385759 6.75931593189078317
86.009497869018218807469 167.37796205924547621 86.009497869018218807469 6.31770801375191926
88.009497869018190385759 167.45179985863791217 88.009497869018190385759 5.88728325415647014
91.009497869018190385759 167.54926255201564800 91.009497869018190385759 5.29177739089478116
94.009497869018190385759 167.63292420898577006 94.009497869018190385759 4.73787967811828814
97.009497869018190385759 167.70456295254945189 97.009497869018190385759 4.23741667841850411
99.504748934509137825444 167.75625449658593880 99.504748934509137825444 3.60133660982822201
nan nan nan nan

