Time Pressure difference Time.1 Pressure.1 difference.1
(hr) (psi) (hr) (psi)
0.000200000000006639311 0.51660861608789499 0.000200000000006639311 0.41408912304328677
0.000399999999999067768 0.96603658920165103 0.000399999999999067768 0.88268963482050866
0.000600000000019917934 1.37950606022314437 0.000600000000019917934 1.21174460385116700
0.000799999999998135536 1.76728998089591460 0.000799999999998135536 1.51712834632507509
0.001007140329448930061 2.14779372337314234 0.001007140329448930061 1.81293383416450116
0.001267914553963578328 2.60216821014765332 0.001267914553963578328 2.15995825349384107
0.001596209851982166583 3.14247828307129051 0.001596209851982166583 2.56248265416814203
0.002009509145210586212 3.78221571228870657 0.002009509145210586212 3.02687193973418500
0.002529822128153114136 4.53637553399859161 0.002529822128153114136 3.55982944157236103
0.003184857364431081805 5.42153514765123834 0.003184857364431081805 4.16842514790108609
0.004009497869020606231 6.45594347881720765 0.004009497869020606231 4.86015978197319232
0.005047658755856332391 7.65962933921836076 0.005047658755856332391 5.64306932363296543
0.006354625877790454069 9.05453837670746431 0.006354625877790454069 6.52586562828975936
0.007999999999995566213 10.66470570512702309 0.007999999999995566213 7.51810243123636113
0.010071403294347192059 12.51646861539399325 0.010071403294347192059 8.63037259642244692
0.012679145539706837553 14.63872907559732539 0.012679145539706837553 9.87459046095891857
0.015962098519764822413 17.06329510241947389 0.015962098519764822413 11.26442825084665067
0.020095091452077440408 19.82534230262140085 0.020095091452077440408 12.81581919384055190
0.025298221281346400247 22.96398418943297770 0.025298221281346400247 14.54706806970049726
0.031848573644282396344 26.52278078830829600 0.031848573644282396344 16.47780327907929632
0.040094978690177640601 30.54982114534586302 0.040094978690177640601 18.62622341930079628
0.050476587558421215363 35.09695715124202309 0.050476587558421215363 21.00494474498153963
0.063546258777947173257 40.21796527216226025 0.063546258777947173257 23.61708129124821198
0.079999999999998294697 45.96596478741302150 0.079999999999998294697 26.45455060841768002
0.100714032943528764008 52.39078621468912900 0.100714032943528764008 29.49895992492109542
0.126791455396883634421 59.53678095024053363 0.126791455396883634421 32.72644643053672553
0.159620985197506115583 67.44239555319235535 0.159620985197506115583 36.11578877129785781
0.200950914520774404082 76.14168321192789790 0.200950914520774404082 39.64950418415371303
0.252982212813464002465 85.66434210801782001 0.252982212813464002465 43.32210790028124592
0.318485736442795541734 96.04096276453594783 0.318485736442795541734 47.15173592510777922
0.400949786901833249431 107.30831722765672964 0.400949786901833249431 51.15330882020155201
0.504765875584169521062 119.50216851465434331 0.504765875584169521062 55.37030482617865346
0.635462587779429100010 132.67694743427961157 0.635462587779429100010 59.85255019149214206
0.800000000000011368684 146.88818385397638622 0.800000000000011368684 64.66963236817169047
1.007140329435344483500 162.21790636112348238 1.007140329435344483500 69.89353210849147047
1.267914553968893187630 178.74879499226264556 1.267914553968893187630 75.57455370532102279
1.596209851975103788391 196.57790462557673550 1.596209851975103788391 81.75071741892162436
2.009509145207672986544 215.79461959638882718 2.009509145207672986544 88.37932438618462072
2.529822128134725289783 236.46261659037332947 2.529822128134725289783 95.33570441123795547
3.184857364427998049905 258.59709958684612729 3.184857364427998049905 102.40615498341584555
4.009497869018190385759 282.14382676849913878 4.009497869018190385759 109.30842466500533305
5.009497869018204596614 306.12896381341994356 5.009497869018204596614 115.52724087202358305
6.009497869018190385759 326.47606283478563682 6.009497869018190385759 120.09479614442487616
7.009497869018190385759 344.09556328429005134 7.009497869018190385759 123.44820381031175316
8.009497869018204596614 359.57504528548400913 8.009497869018204596614 125.86830037930008075
9.009497869018190385759 373.32736956596670552 9.009497869018190385759 127.54270671128141146
10.009497869018190385759 385.65974221483702422 10.009497869018190385759 128.62882951171386026
11.009497869018204596614 396.79813489542942762 11.009497869018204596614 129.39787079589976315
12.009497869018190385759 406.92017280730323137 12.009497869018190385759 129.80036074378350008
13.009497869018190385759 416.16592042282218245 13.009497869018190385759 129.90683378857133334
14.009497869018204596614 424.64872415606930645 14.009497869018204596614 129.76947806079400038
15.009497869018190385759 432.46185564247014099 15.009497869018190385759 129.39474511671107848
16.009497869018190385759 439.68333082804457490 16.009497869018190385759 128.79646681809992970
17.009497869018190385759 446.37105419769460468 17.009497869018190385759 127.88488579939115652
18.009497869018204596614 452.57798407534534135 18.009497869018204596614 126.83006456941062368
19.009497869018190385759 458.34808286257913323 19.009497869018190385759 125.44416102836643745
20.009497869018190385759 463.71737287804847938 20.009497869018190385759 124.08026932667398512
21.009497869018204596614 468.71777279872560484 21.009497869018204596614 122.62416237237687255
22.009497869018190385759 473.38450679773075080 22.009497869018190385759 121.09790287914043461
23.009497869018190385759 477.75384167645790967 23.009497869018190385759 119.46391551007926068
24.009497869018204596614 481.85014024248130227 24.009497869018204596614 117.82502699021644332
25.009497869018190385759 485.69544489484945871 25.009497869018190385759 116.09747989979425142
26.009497869018190385759 489.30972767722141725 26.009497869018190385759 114.11090838833000305
27.009497869018204596614 492.70931154208568614 27.009497869018204596614 112.08015526733250056
28.009497869018190385759 495.89890263593071040 28.009497869018190385759 109.96707081710002285
29.009497869018190385759 498.88652059395951710 29.009497869018190385759 107.82576767792535577
30.009497869018190385759 501.68802727376373696 30.009497869018190385759 105.67993124948206685
31.009497869018190385759 504.31011250154114123 31.009497869018190385759 103.47584602699654965
32.009497869018190385759 506.77560702425046202 32.009497869018190385759 101.26278476169667897
33.009497869018190385759 509.10282743708950193 33.009497869018190385759 99.08680997110228361
34.009497869018190385759 511.30093819242074460 34.009497869018190385759 96.89274592144839460
35.009497869018190385759 513.37576279465417883 35.009497869018190385759 94.61066012396315728
36.009497869018190385759 515.33516726850439227 36.009497869018190385759 92.48723731669217329
37.009497869018190385759 517.18370627316005539 37.009497869018190385759 90.37844051767653752
38.009497869018190385759 518.92560041029867079 38.009497869018190385759 88.25123261044032574
39.009497869018190385759 520.56472539141645939 39.009497869018190385759 86.08088098728461546
40.009497869018190385759 522.11052585103266210 40.009497869018190385759 83.82480316287612254
41.009497869018190385759 523.56898837967560212 41.009497869018190385759 81.73970821627140992
42.009497869018190385759 524.94558874805500182 42.009497869018190385759 79.60102895413183433
43.009497869018190385759 526.24567433370111758 43.009497869018190385759 77.53305193886852464
44.009497869018190385759 527.47397765291168525 44.009497869018190385759 75.44905380419979224
46.009497869018190385759 529.73205905294469176 46.009497869018190385759 71.42906778686362657
48.009497869018190385759 531.75032766088315839 48.009497869018190385759 67.58643524372408251
50.009497869018218807469 533.55471884166252039 50.009497869018218807469 63.86635224440867376
52.009497869018190385759 535.17006764890663817 52.009497869018190385759 60.28789914579470377
54.009497869018190385759 536.61674494920362122 54.009497869018190385759 56.87999970245391523
56.009497869018190385759 537.91360136441801387 56.009497869018190385759 53.61333310307566791
58.009497869018190385759 539.07653428366199932 58.009497869018190385759 50.50189050979346916
60.009497869018190385759 540.12057895249222383 60.009497869018190385759 47.54175573717692060
62.009497869018190385759 541.05779892324267166 62.009497869018190385759 44.72159452084537179
64.009497869018190385759 541.90057123240410419 64.009497869018190385759 42.04080283713388866
66.009497869018218807469 542.65814373348860045 66.009497869018218807469 39.52395447412839502
68.009497869018190385759 543.33965083914745264 68.009497869018190385759 37.14472104926275620
70.009497869018190385759 543.95313149068533676 70.009497869018190385759 34.86269518175420501
72.009497869018190385759 544.50517078972984564 72.009497869018190385759 32.73902623970455039
74.009497869018218807469 545.00257595591983772 74.009497869018218807469 30.71541114470688072
76.009497869018190385759 545.45090122208375760 76.009497869018190385759 28.80177784721605860
78.009497869018190385759 545.85505079908864445 78.009497869018190385759 26.98883477554893418
80.009497869018218807469 546.21958498012259042 80.009497869018218807469 25.28723154886424496
82.009497869018190385759 546.54831575080947914 82.009497869018190385759 23.67073809510498705
84.009497869018190385759 546.84466301002009914 84.009497869018190385759 22.09432784785445492
86.009497869018218807469 547.11210505709311747 86.009497869018218807469 20.65083412424636222
88.009497869018190385759 547.35346033087819251 88.009497869018190385759 19.24389504222071068
91.009497869018190385759 547.67203882641240398 91.009497869018190385759 17.29735164777060419
94.009497869018190385759 547.94550556417368625 94.009497869018190385759 15.48681374962012924
97.009497869018190385759 548.17967273476517676 97.009497869018190385759 13.85093909861907768
99.504748934509137825444 548.34863804610915849 99.504748934509137825444 11.77176988763233645
nan nan nan nan

