Time Pressure difference Time.1 Pressure.1 difference.1
(hr) (psi) (hr) (psi)
0.000200000000006639311 0.09468837168187832 0.000200000000006639311 0.07589773683812263
0.000399999999999067768 0.17706331015016788 0.000399999999999067768 0.16178677942801775
0.000600000000019917934 0.25284747195464641 0.000600000000019917934 0.22209874140668293
0.000799999999998135536 0.32392377008334827 0.000799999999998135536 0.27807204191402995
0.001007140329448930061 0.39366569592823097 0.001007140329448930061 0.33228975936168753
0.001267914553963578328 0.47694727301897688 0.001267914553963578328 0.39589531330884425
0.001596209851982166583 0.57597984703193461 0.001596209851982166583 0.46967337057529285
0.002009509145210586212 0.69323630306100270 0.002009509145210586212 0.55479054421003926
0.002529822128153114136 0.83146505744448584 0.002529822128153114136 0.65247547716151089
0.003184857364431081805 0.99370455536464730 0.003184857364431081805 0.76402401632688377
0.004009497869020606231 1.18329961336811373 0.004009497869020606231 0.89081095734279525
0.005047658755856332391 1.40392128050363474 0.005047658755856332391 1.03430920217531441
0.006354625877790454069 1.65959193966605811 0.006354625877790454069 1.19611553294798845
0.007999999999995566213 1.95471694864861889 0.007999999999995566213 1.37798103860936005
0.010071403294347192059 2.29412362761938438 0.010071403294347192059 1.58184726834697131
0.012679145539706837553 2.68310937234667923 0.012679145539706837553 1.80989798206255093
0.015962098519764822413 3.12750422362405489 0.015962098519764822413 2.06463914031690621
0.020095091452077440408 3.63375546247508119 0.020095091452077440408 2.34899111908667813
0.025298221281346400247 4.20903214253758140 0.025298221281346400247 2.66630897234402653
0.031848573644282396344 4.86131831160367600 0.031848573644282396344 3.02019035842962902
0.040094978690177640601 5.59942813445692433 0.040094978690177640601 3.41397086930580640
0.050476587558421215363 6.43286546168317397 0.050476587558421215363 3.84996291821764025
0.063546258777947173257 7.37148689624537390 0.063546258777947173257 4.32873727171126266
0.079999999999998294697 8.42502858637219809 0.079999999999998294697 4.84881251043774153
0.100714032943528764008 9.60262388840663306 0.100714032943528764008 5.40681745254618473
0.126791455396883634421 10.91240189923546211 0.126791455396883634421 5.99837832149999173
0.159620985197506115583 12.36140942753930005 0.159620985197506115583 6.61960548907885293
0.200950914520774404082 13.95588802806225637 0.200950914520774404082 7.26729456744596281
0.252982212813464002465 15.70128103327550484 0.252982212813464002465 7.94044026204615783
0.318485736442795541734 17.60319533150524052 0.318485736442795541734 8.64236669247258504
0.400949786901833249431 19.66837081261633102 0.400949786901833249431 9.37580862472696808
0.504765875584169521062 21.90336242317114568 0.504765875584169521062 10.14873511638853998
0.635462587779429100010 24.31814669954450991 0.635462587779429100010 10.97027874129775071
0.800000000000011368684 26.92290162283125099 0.800000000000011368684 11.85319407287243898
1.007140329435344483500 29.73266208236225694 1.007140329435344483500 12.81067434872620225
1.267914553968893187630 32.76258237054948808 1.267914553968893187630 13.85193976270034888
1.596209851975103788391 36.03045152166905751 1.596209851975103788391 14.98395898783469171
2.009509145207672986544 39.55265264839471939 2.009509145207672986544 16.19890581741389113
2.529822128134725289783 43.34085694917894216 2.529822128134725289783 17.47392964949913718
3.184857364427998049905 47.39785113721168841 3.184857364427998049905 18.76986129076085419
4.009497869018190385759 51.71369331605913544 4.009497869018190385759 20.03496732404410352
5.009497869018204596614 56.10989094154327006 5.009497869018204596614 21.17480425686685663
6.009497869018190385759 59.83927836324912164 6.009497869018190385759 22.01198419897814418
7.009497869018190385759 63.06872858040895125 7.009497869018190385759 22.62662495714608824
8.009497869018204596614 65.90593821944180775 8.009497869018204596614 23.07020060860486410
9.009497869018190385759 68.42657986653837554 9.009497869018190385759 23.37709988239119951
10.009497869018190385759 70.68696083722079493 10.009497869018190385759 23.57617360322517897
11.009497869018204596614 72.72849911829972314 11.009497869018204596614 23.71712995719996186
12.009497869018190385759 74.58375135012565238 12.009497869018190385759 23.79090169966920953
13.009497869018190385759 76.27838972709407983 13.009497869018190385759 23.81041697472466367
14.009497869018204596614 77.83318933318790300 14.009497869018204596614 23.78524126181669374
15.009497869018190385759 79.26524577813468397 15.009497869018190385759 23.71655705643222234
16.009497869018190385759 80.58885848061193258 16.009497869018190385759 23.60689957851966625
17.009497869018190385759 81.81464066157205650 17.009497869018190385759 23.43981734328463773
18.009497869018204596614 82.95229896798782931 18.009497869018204596614 23.24648083752000716
19.009497869018190385759 84.00989119853203135 19.009497869018190385759 22.99246078147955785
20.009497869018190385759 84.99401982670430300 20.009497869018190385759 22.74247524046854707
21.009497869018204596614 85.91053517604673573 21.009497869018204596614 22.47558771245721942
22.009497869018190385759 86.76589342923367099 22.009497869018190385759 22.19584203714703463
23.009497869018190385759 87.56674187061761927 23.009497869018190385759 21.89635109079619824
24.009497869018204596614 88.31754592045479058 24.009497869018204596614 21.59596182030921341
25.009497869018190385759 89.02234569501283090 25.009497869018190385759 21.27932246141781292
26.009497869018190385759 89.68480183841255382 26.009497869018190385759 20.91520692831924677
27.009497869018204596614 90.30790615865720383 27.009497869018204596614 20.54299341827118752
28.009497869018190385759 90.89252123785252024 28.009497869018190385759 20.15568952981886852
29.009497869018190385759 91.44011698218126583 29.009497869018190385759 19.76321348274642631
30.009497869018190385759 91.95360068629632622 30.009497869018190385759 19.36990653629320747
31.009497869018190385759 92.43419851780269880 31.009497869018190385759 18.96592326101284343
32.009497869018190385759 92.88609508800279002 32.009497869018190385759 18.56029478111960529
33.009497869018190385759 93.31264761650159301 33.009497869018190385759 18.16146382219664446
34.009497869018190385759 93.71553584119841673 34.009497869018190385759 17.75931731174795303
35.009497869018190385759 94.09582714295548556 35.009497869018190385759 17.34103743511992946
36.009497869018190385759 94.45496327293342631 36.009497869018190385759 16.95183864564708287
37.009497869018190385759 94.79377904737165750 37.009497869018190385759 16.56532063396766574
38.009497869018190385759 95.11304805363964476 38.009497869018190385759 16.17542807954162143
39.009497869018190385759 95.41348066473402412 39.009497869018190385759 15.77762778203599403
40.009497869018190385759 95.69680797269600703 40.009497869018190385759 15.36411486543282301
41.009497869018190385759 95.96412725018313949 41.009497869018190385759 14.98194112858882754
42.009497869018190385759 96.21644214250063953 42.009497869018190385759 14.58994600776540373
43.009497869018190385759 96.45473276197216705 43.009497869018190385759 14.21090978933439253
44.009497869018190385759 96.67986652398381864 44.009497869018190385759 13.82893708540588840
46.009497869018190385759 97.09374667277691628 46.009497869018190385759 13.09212024125802287
48.009497869018190385759 97.46367191628047522 48.009497869018190385759 12.38781023335104337
50.009497869018218807469 97.79439590628855683 50.009497869018218807469 11.70596213644148165
52.009497869018190385759 98.09047062028477626 52.009497869018190385759 11.05007315879795016
54.009497869018190385759 98.35562980201036964 54.009497869018190385759 10.42544468939856195
56.009497869018190385759 98.59332855196880985 56.009497869018190385759 9.82670256336696823
58.009497869018190385759 98.80648067732887796 58.009497869018190385759 9.25641119856052796
60.009497869018190385759 98.99784196433819261 60.009497869018190385759 8.71385280357959857
62.009497869018190385759 99.16962352231939803 62.009497869018190385759 8.19694993913068792
64.009497869018190385759 99.32409391860775827 64.009497869018190385759 7.70559189467683225
66.009497869018218807469 99.46294817756664486 66.009497869018218807469 7.24428276075668798
68.009497869018190385759 99.58786053116449466 68.009497869018190385759 6.80819684999964281
70.009497869018190385759 99.70030442416872063 70.009497869018190385759 6.38992795784174117
72.009497869018190385759 99.80148682938445859 72.009497869018190385759 6.00068405471673660
74.009497869018218807469 99.89265543127372382 74.009497869018218807469 5.62977886210260969
76.009497869018190385759 99.97482825633881021 76.009497869018190385759 5.27903205824984401
78.009497869018190385759 100.04890418959037390 78.009497869018190385759 4.94674060576099084
80.009497869018218807469 100.11571907991465480 80.009497869018218807469 4.63485645639560317
82.009497869018190385759 100.17597162009444389 82.009497869018190385759 4.33857194195994378
84.009497869018190385759 100.23028863795518362 84.009497869018190385759 4.04963421470108642
86.009497869018218807469 100.27930766545102870 86.009497869018218807469 3.78505854568396982
88.009497869018190385759 100.32354528975663754 88.009497869018190385759 3.52718291878977963
91.009497869018190385759 100.38193703556883918 91.009497869018190385759 3.17040407560215920
94.009497869018190385759 100.43206031903991970 94.009497869018190385759 2.83855346354223403
97.009497869018190385759 100.47498044734241773 97.009497869018190385759 2.53871660028597645
99.504748934509137825444 100.50594983055368914 99.504748934509137825444 2.15762898209972764
nan nan nan nan

