Time Pressure difference Time.1 Pressure.1 difference.1
(hr) (psi) (hr) (psi)
0.000200000000006639311 0.72896121434504857 0.000200000000006639311 0.58430095933466475
0.000399999999999067768 1.36312710093548373 0.000399999999999067768 1.24552027986128366
0.000600000000019917934 1.94655369953319712 0.000600000000019917934 1.70983369303527244
0.000799999999998135536 2.49373667115636488 0.000799999999998135536 2.14074579326462766
0.001007140329448930061 3.03064693850630773 0.001007140329448930061 2.55814248567416813
0.001267914553963578328 3.67179260919756478 0.001267914553963578328 3.04781171348794055
0.001596209851982166583 4.43419779295908523 0.001596209851982166583 3.61579425729655624
0.002009509145210586212 5.33690006841816089 0.002009509145210586212 4.27107132196993522
0.002529822128153114136 6.40105819959100497 0.002529822128153114136 5.02310165138310172
0.003184857364431081805 7.65006374607930795 0.003184857364431081805 5.88186136098711287
0.004009497869020606231 9.10966687644422812 0.004009497869020606231 6.85793435542578411
0.005047658755856332391 10.80812926975959876 0.005047658755856332391 7.96265981380554688
0.006354625877790454069 12.77641735904678555 0.006354625877790454069 9.20833061026870325
0.007999999999995566213 15.04844592084635124 0.007999999999995566213 10.60842755458823383
0.010071403294347192059 17.66137822145216774 0.010071403294347192059 12.17789772028881679
0.012679145539706837553 20.65599641799245134 0.012679145539706837553 13.93355284720213838
0.015962098519764822413 24.07718325098812784 0.015962098519764822413 15.89468514641030161
0.020095091452077440408 27.97457330302507472 0.020095091452077440408 18.08377721826288109
0.025298221281346400247 32.40335774438858607 0.025298221281346400247 20.52665804444261610
0.031848573644282396344 37.42500200183124548 0.031848573644282396344 23.25102430349868854
0.040094978690177640601 43.10736218217940774 0.040094978690177640601 26.28255514825867323
0.050476587558421215363 49.52360395869325771 0.050476587558421215363 29.63905276010198264
0.063546258777947173257 56.74960867918313312 0.063546258777947173257 33.32491120207126301
0.079999999999998294697 64.86033036714479749 0.079999999999998294697 37.32872572373761244
0.100714032943528764008 73.92608243501283027 0.100714032943528764008 41.62454318246953022
0.126791455396883634421 84.00944697426125174 0.126791455396883634421 46.17869193095949498
0.159620985197506115583 95.16467404877681702 0.159620985197506115583 50.96122755195263920
0.200950914520774404082 107.43981445133221087 0.200950914520774404082 55.94748097144061205
0.252982212813464002465 120.87677383705479883 0.252982212813464002465 61.12971289972298905
0.318485736442795541734 135.51871700063227877 0.318485736442795541734 66.53351416925585227
0.400949786901833249431 151.41753118242127130 0.400949786901833249431 72.17993845653776930
0.504765875584169521062 168.62367983132494942 0.504765875584169521062 78.13033578572647286
0.635462587779429100010 187.21396760605222198 0.635462587779429100010 84.45501354513784520
0.800000000000011368684 207.26674999341409489 0.800000000000011368684 91.25216319336355753
1.007140329435344483500 228.89777353112705782 1.007140329435344483500 98.62335325820833987
1.267914553968893187630 252.22370398503909428 1.267914553968893187630 106.63956567314164658
1.596209851975103788391 277.38149075873161564 1.596209851975103788391 115.35444897252148166
2.009509145207672986544 304.49725972697990528 2.009509145207672986544 124.70775287376724805
2.529822128134725289783 333.66086195434087358 2.529822128134725289783 134.52356134577644298
3.184857364427998049905 364.89375103426937130 3.184857364427998049905 144.50032920166628969
4.009497869018190385759 398.11938898466115688 4.009497869018190385759 154.23978520789836466
5.009497869018204596614 431.96364570438095143 5.009497869018204596614 163.01485335984997960
6.009497869018190385759 460.67444445824878585 6.009497869018190385759 169.45990776713321679
7.009497869018190385759 485.53646193888368998 7.009497869018190385759 174.19173772155849633
8.009497869018204596614 507.37880379232035466 8.009497869018204596614 177.60661792065656073
9.009497869018190385759 526.78403764901236173 9.009497869018190385759 179.96929100634989140
10.009497869018190385759 544.18564703360425483 10.009497869018190385759 181.50186590129973752
11.009497869018204596614 559.90248953573404833 11.009497869018204596614 182.58702253814968230
12.009497869018190385759 574.18520340868803942 12.009497869018190385759 183.15495646730636281
13.009497869018190385759 587.23142679608474737 13.009497869018190385759 183.30519538629943099
14.009497869018204596614 599.20109729299804258 14.009497869018204596614 183.11137942001528245
15.009497869018190385759 610.22582595372807646 15.009497869018190385759 182.58261204473922135
16.009497869018190385759 620.41569727353464714 16.009497869018190385759 181.73841072580947298
17.009497869018190385759 629.85241744607321834 17.009497869018190385759 180.45212322366921853
18.009497869018204596614 638.61071337855344154 18.009497869018204596614 178.96371644767239673
19.009497869018190385759 646.75261827105180146 19.009497869018190385759 177.00813557506691609
20.009497869018190385759 654.32896145999563942 20.009497869018190385759 175.08361453507768601
21.009497869018204596614 661.38478183324230031 21.009497869018204596614 173.02897305104929160
22.009497869018190385759 667.96978250299741831 22.009497869018190385759 170.87534274185989602
23.009497869018190385759 674.13513778335777715 23.009497869018190385759 168.56970288282073511
24.009497869018204596614 679.91522484350127797 24.009497869018204596614 166.25714724899813746
25.009497869018190385759 685.34114663734146689 25.009497869018190385759 163.81948983165037248
26.009497869018190385759 690.44108474130825925 26.009497869018190385759 161.01633569081064934
27.009497869018204596614 695.23807167730944911 27.009497869018204596614 158.15083903624952200
28.009497869018190385759 699.73874805905586527 28.009497869018190385759 155.16916865970853223
29.009497869018190385759 703.95443000252782895 29.009497869018190385759 152.14768026790815725
30.009497869018190385759 707.90749940111948035 30.009497869018190385759 149.11979517278666663
31.009497869018190385759 711.60739594220160598 31.009497869018190385759 146.00971804617978478
32.009497869018190385759 715.08633497896266817 32.009497869018190385759 142.88697526347226585
33.009497869018190385759 718.37016216527331380 33.009497869018190385759 139.81656339588150217
34.009497869018190385759 721.47180901275544329 34.009497869018190385759 136.72062665735373344
35.009497869018190385759 724.39949278437052271 35.009497869018190385759 133.50048672478359890
36.009497869018190385759 727.16431284383304501 36.009497869018190385759 130.50422839700362942
37.009497869018190385759 729.77269604851551321 37.009497869018190385759 127.52860811591284573
38.009497869018190385759 732.23059788353464228 38.009497869018190385759 124.52700881823588475
39.009497869018190385759 734.54348717629807197 39.009497869018190385759 121.46453152788004104
40.009497869018190385759 736.72469078979941060 40.009497869018190385759 118.28109017726590935
41.009497869018190385759 738.78265610986579759 41.009497869018190385759 115.33891442376840075
42.009497869018190385759 740.72510972939835483 42.009497869018190385759 112.32112845684100932
43.009497869018190385759 742.55959707194745079 43.009497869018190385759 109.40310698112581633
44.009497869018190385759 744.29279596037542888 44.009497869018190385759 106.46247888544093030
46.009497869018190385759 747.47906445880460069 46.009497869018190385759 100.79007273968493053
48.009497869018190385759 750.32694482607098507 48.009497869018190385759 95.36792142881280654
50.009497869018218807469 752.87303319032434956 50.009497869018218807469 90.11869380039875921
52.009497869018190385759 755.15237308410405603 52.009497869018190385759 85.06931321515774869
54.009497869018190385759 757.19370884341810779 54.009497869018190385759 80.26059257206097186
56.009497869018190385759 759.02363966111283844 56.009497869018190385759 75.65115870474423332
58.009497869018190385759 760.66459756737754105 58.009497869018190385759 71.26075385950640850
60.009497869018190385759 762.13779806369177550 60.009497869018190385759 67.08385209814586858
62.009497869018190385759 763.46026344020901888 62.009497869018190385759 63.10446019316052002
64.009497869018190385759 764.64945832928185609 64.009497869018190385759 59.32172583622531903
66.009497869018218807469 765.71843192582559823 66.009497869018218807469 55.77032390082538171
68.009497869018190385759 766.68007335389131640 68.009497869018190385759 52.41310369080607501
70.009497869018190385759 767.54572597135768319 70.009497869018190385759 49.19304832250222859
72.009497869018190385759 768.32468169386402224 72.009497869018190385759 46.19644268594428382
74.009497869018218807469 769.02654585693812805 74.009497869018218807469 43.34101815162817672
76.009497869018190385759 769.65915576754957783 76.009497869018190385759 40.64078356608519726
78.009497869018190385759 770.22943151839047005 78.009497869018190385759 38.08262804582174255
80.009497869018218807469 770.74380791669591417 80.009497869018218807469 35.68157874886909298
82.009497869018190385759 771.20766386940351822 82.009497869018190385759 33.40062370023574090
84.009497869018190385759 771.62582502896373171 84.009497869018190385759 31.17622810876497752
86.009497869018218807469 772.00319945387661846 86.009497869018218807469 29.13938453919938354
88.009497869018190385759 772.34376410570007465 88.009497869018190385759 27.15412144097719960
91.009497869018190385759 772.79329467823947653 91.009497869018190385759 24.40744902320191656
94.009497869018190385759 773.17917025025587918 94.009497869018190385759 21.85268732594646224
97.009497869018190385759 773.50959212034933898 97.009497869018190385759 19.54438441543689109
99.504748934509137825444 773.74801082786564166 99.504748934509137825444 16.61057017837069694
nan nan nan nan

