Time Pressure difference Time.1 Pressure.1 difference.1
(hr) (psi) (hr) (psi)
0.000200000000006639311 0.11557551249405737 0.000200000000006639311 0.09263988467006146
0.000399999999999067768 0.21612139327152843 0.000399999999999067768 0.19747503959596283
0.000600000000019917934 0.30862264959170077 0.000600000000019917934 0.27109111083462772
0.000799999999998135536 0.39537754289585153 0.000799999999998135536 0.33941146292447771
0.001007140329448930061 0.48050371708887013 0.001007140329448930061 0.40558897098558921
0.001267914553963578328 0.58215623030257480 0.001267914553963578328 0.48322516183285408
0.001596209851982166583 0.70303422505368496 0.001596209851982166583 0.57327779055513695
0.002009509145210586212 0.84615607579504759 0.002009509145210586212 0.67717081131519508
0.002529822128153114136 1.01487646717488689 0.002529822128153114136 0.79640389124125588
0.003184857364431081805 1.21290408963626062 0.003184857364431081805 0.93255872581075516
0.004009497869020606231 1.44432158690519752 0.004009497869020606231 1.08731337440370601
0.005047658755856332391 1.71360979826178950 0.005047658755856332391 1.26246564383163395
0.006354625877790454069 2.02567839694533580 0.006354625877790454069 1.45996454756886807
0.007999999999995566213 2.38590451085052013 0.007999999999995566213 1.68194744418495401
0.010071403294347192059 2.80018031018248381 0.010071403294347192059 1.93078416577645040
0.012679145539706837553 3.27497173389374119 0.012679145539706837553 2.20914018398811374
0.015962098519764822413 3.81739486118818450 0.015962098519764822413 2.52007424479857667
0.020095091452077440408 4.43531916743281940 0.020095091452077440408 2.86715092476756306
0.025298221281346400247 5.13749511515616497 0.025298221281346400247 3.25446536330226754
0.031848573644282396344 5.93366793916331137 0.031848573644282396344 3.68640881984792923
0.040094978690177640601 6.83459610529301020 0.040094978690177640601 4.16705267871149854
0.050476587558421215363 7.85187990176034312 0.050476587558421215363 4.69921944429506055
0.063546258777947173257 8.99755018218185398 0.063546258777947173257 5.28360578752992360
0.079999999999998294697 10.28349077454253724 0.079999999999998294697 5.91840350538724280
0.100714032943528764008 11.72084974614339004 0.100714032943528764008 6.59949777296078466
0.126791455396883634421 13.31954937700799135 0.126791455396883634421 7.32155001006616679
0.159620985197506115583 15.08819091890826236 0.159620985197506115583 8.07981258225801291
0.200950914520774404082 17.03439274013481253 0.200950914520774404082 8.87037425144139569
0.252982212813464002465 19.16479890826274612 0.252982212813464002465 9.69200796690928001
0.318485736442795541734 21.48625312521962982 0.318485736442795541734 10.54877110992977229
0.400949786901833249431 24.00698202128169712 0.400949786901833249431 11.44400170371086034
0.504765875584169521062 26.73498648710596015 0.504765875584169521062 12.38742668618012921
0.635462587779429100010 29.68244376562050135 0.635462587779429100010 13.39019316952519745
0.800000000000011368684 32.86177698080873455 0.800000000000011368684 14.46786923600606478
1.007140329435344483500 36.29133754170686643 1.007140329435344483500 15.63655839623933375
1.267914553968893187630 39.98962259934717167 1.267914553968893187630 16.90751471035483533
1.596209851975103788391 43.97834523968428755 1.596209851975103788391 18.28924405868057690
2.009509145207672986544 48.27750249730531351 2.009509145207672986544 19.77219386537284151
2.529822128134725289783 52.90134009973312601 2.529822128134725289783 21.32847295453571590
3.184857364427998049905 57.85325947630249743 3.184857364427998049905 22.91027186960516104
4.009497869018190385759 63.12112566518982248 4.009497869018190385759 24.45444541023030638
5.009497869018204596614 68.48707276688369916 5.009497869018204596614 25.84571696058748813
6.009497869018190385759 73.03911917867172576 6.009497869018190385759 26.86756894875273716
7.009497869018190385759 76.98094812020504207 7.009497869018190385759 27.61779222710478265
8.009497869018204596614 80.44401282667161013 8.009497869018204596614 28.15921544873829063
9.009497869018190385759 83.52067836651006871 9.009497869018190385759 28.53381309174219993
10.009497869018190385759 86.27967278660774753 10.009497869018190385759 28.77680013334838449
11.009497869018204596614 88.77155039439524842 11.009497869018204596614 28.94884980069994995
12.009497869018190385759 91.03604944206514915 12.009497869018190385759 29.03889472165506547
13.009497869018190385759 93.10450510807072533 13.009497869018190385759 29.06271483679628176
14.009497869018204596614 95.00227521550876020 14.009497869018204596614 29.03198565780566653
15.009497869018190385759 96.75022646448793751 15.009497869018190385759 28.94815052476285899
16.009497869018190385759 98.36581255721750949 16.009497869018190385759 28.81430389731076858
17.009497869018190385759 99.86198786633060820 17.009497869018190385759 28.61036528665624701
18.009497869018204596614 101.25060021092632212 18.009497869018204596614 28.37438102226706604
19.009497869018190385759 102.54148484526702134 19.009497869018190385759 28.06432713033534654
20.009497869018190385759 103.74270067083025992 20.009497869018190385759 27.75919771998366414
21.009497869018204596614 104.86138852370412167 21.009497869018204596614 27.43343794314630912
22.009497869018190385759 105.90542874450579802 22.009497869018190385759 27.09198366298829086
23.009497869018190385759 106.88293493031270032 23.009497869018190385759 26.72642853729535872
24.009497869018204596614 107.79935752055510534 24.009497869018204596614 26.35977692773036196
25.009497869018190385759 108.65962783361861455 25.009497869018190385759 25.97329065143645010
26.009497869018190385759 109.46821400865060525 26.009497869018190385759 25.52885551544849108
27.009497869018204596614 110.22876781130217694 27.009497869018204596614 25.07453608406630252
28.009497869018190385759 110.94234209914351652 28.009497869018190385759 24.60179751433773632
29.009497869018190385759 111.61073102236831289 29.009497869018190385759 24.12274586864637627
30.009497869018190385759 112.23748319062639212 30.009497869018190385759 23.64268003694612119
31.009497869018190385759 112.82409524967093262 31.009497869018190385759 23.14958280388332312
32.009497869018190385759 113.37567488682692840 32.009497869018190385759 22.65447745342540387
33.009497869018190385759 113.89631988484752867 33.009497869018190385759 22.16766907709295964
34.009497869018190385759 114.38808051205099048 34.009497869018190385759 21.67681377757470784
35.009497869018190385759 114.85225960096036601 35.009497869018190385759 21.16626628110226704
36.009497869018190385759 115.29061693608051087 36.009497869018190385759 20.69121481748099711
37.009497869018190385759 115.70417148429187648 37.009497869018190385759 20.21943547969582866
38.009497869018190385759 116.09386747723662836 38.009497869018190385759 19.74353721473462642
39.009497869018190385759 116.46057198783711328 39.009497869018190385759 19.25798685160275525
40.009497869018190385759 116.80639796667307451 40.009497869018190385759 18.75325785045476579
41.009497869018190385759 117.13268473184118079 41.009497869018190385759 18.28678108342459652
42.009497869018190385759 117.44065732099343791 42.009497869018190385759 17.80831645065482860
43.009497869018190385759 117.73151204770134370 43.009497869018190385759 17.34566930168756826
44.009497869018190385759 118.00630766898024149 44.009497869018190385759 16.87943791306895491
46.009497869018190385759 118.51148490941886848 46.009497869018190385759 15.98008794153552614
48.009497869018190385759 118.96301130957763803 48.009497869018190385759 15.12041543188436243
50.009497869018218807469 119.36668912091103323 50.009497869018218807469 14.28815966653886882
52.009497869018190385759 119.72807443358287571 52.009497869018190385759 13.48758929676808549
54.009497869018190385759 120.05172461127736483 54.009497869018190385759 12.72517513558941893
56.009497869018190385759 120.34185690902074839 56.009497869018190385759 11.99435754058026937
58.009497869018190385759 120.60202788556320286 58.009497869018190385759 11.29826661000770294
60.009497869018190385759 120.83560122117749813 60.009497869018190385759 10.63602621613392074
62.009497869018190385759 121.04527576988986937 62.009497869018190385759 10.00510066099775308
64.009497869018190385759 121.23382051830064654 64.009497869018190385759 9.40535481262025108
66.009497869018218807469 121.40330439320635492 66.009497869018218807469 8.84228631092360295
68.009497869018190385759 121.55577094245077774 68.009497869018190385759 8.31000497867603372
70.009497869018190385759 121.69301863538241548 70.009497869018190385759 7.79947088971859603
72.009497869018190385759 121.81652068880748629 72.009497869018190385759 7.32436436090425147
74.009497869018218807469 121.92780001170173421 74.009497869018218807469 6.87164184638995046
76.009497869018190385759 122.02809919523707549 76.009497869018190385759 6.44352442404025094
78.009497869018190385759 122.11851540788237003 78.009497869018190385759 6.03793338644356226
80.009497869018218807469 122.20006887695465991 80.009497869018218807469 5.65725126295345682
82.009497869018190385759 122.27361241864470287 82.009497869018190385759 5.29560987033346020
84.009497869018190385759 122.33991113162176134 84.009497869018190385759 4.94293587970867865
86.009497869018218807469 122.39974317988877317 86.009497869018218807469 4.61999793076131571
88.009497869018190385759 122.45373910367354142 88.009497869018190385759 4.30523797440517164
91.009497869018190385759 122.52501138165020222 91.009497869018190385759 3.86975791580851736
94.009497869018190385759 122.58619127176932295 94.009497869018190385759 3.46470496285302110
97.009497869018190385759 122.63857907543265924 97.009497869018190385759 3.09872761505494188
99.504748934509137825444 122.67637994023466774 99.504748934509137825444 2.63357655168055027
nan nan nan nan

