Time Pressure difference Time.1 Pressure.1 difference.1
(hr) (psi) (hr) (psi)
0.000200000000006639311 0.44280738521819568 0.000200000000006639311 0.35493353403710293
0.000399999999999067768 0.82803136217284390 0.000399999999999067768 0.75659111556043601
0.000600000000019917934 1.18243376590555238 0.000600000000019917934 1.03863823187242899
0.000799999999998135536 1.51481998362506975 0.000799999999998135536 1.30039572542149306
0.001007140329448930061 1.84096604860555080 0.001007140329448930061 1.55394328642671531
0.001267914553963578328 2.23042989441227446 0.001267914553963578328 1.85139278870900692
0.001596209851982166583 2.69355281406110603 0.001596209851982166583 2.19641370357269317
0.002009509145210586212 3.24189918196174798 0.002009509145210586212 2.59446166262930111
0.002529822128153114136 3.88832188628450703 0.002529822128153114136 3.05128237849059492
0.003184857364431081805 4.64703012655820391 0.003184857364431081805 3.57293584105807405
0.004009497869020606231 5.53366583898617836 0.004009497869020606231 4.16585124169130783
0.005047658755856332391 6.56539657647287989 0.005047658755856332391 4.83691656311397011
0.006354625877790454069 7.76103289432068344 0.006354625877790454069 5.59359910996265164
0.007999999999995566213 9.14117631868030500 0.007999999999995566213 6.44408779820259525
0.010071403294347192059 10.72840167033770697 0.010071403294347192059 7.39746222550495336
0.012679145539706837553 12.54748206479770545 0.012679145539706837553 8.46393468082192868
0.015962098519764822413 14.62568151635954905 0.015962098519764822413 9.65522421501141359
0.020095091452077440408 16.99315054510405432 0.020095091452077440408 10.98498788043475827
0.025298221281346400247 19.68341501951398342 0.025298221281346400247 12.46891548831471219
0.031848573644282396344 22.73381210426425270 0.031848573644282396344 14.12383138206796929
0.040094978690177640601 26.18556098172502900 0.040094978690177640601 15.96533435940068379
0.050476587558421215363 30.08310612963601471 0.050476587558421215363 18.00423835284131968
0.063546258777947173257 34.47254166185336288 0.063546258777947173257 20.24321253535561027
0.079999999999998294697 39.39939838921116433 0.079999999999998294697 22.67532909292943799
0.100714032943528764008 44.90638818401925647 0.100714032943528764008 25.28482279278951239
0.126791455396883634421 51.03152652877760431 0.126791455396883634421 28.05123979760290354
0.159620985197506115583 57.80776761702202293 0.159620985197506115583 30.95639037539816130
0.200950914520774404082 65.26429989593819414 0.200950914520774404082 33.98528930070317955
0.252982212813464002465 73.42657894972957422 0.252982212813464002465 37.13323534309820673
0.318485736442795541734 82.32082522674510017 0.318485736442795541734 40.41577365009238321
0.400949786901833249431 91.97855762370576826 0.400949786901833249431 43.84569327445847620
0.504765875584169521062 102.43043015541800855 0.504765875584169521062 47.46026127958170093
0.635462587779429100010 113.72309780081107533 0.635462587779429100010 51.30218587842183098
0.800000000000011368684 125.90415758912260458 0.800000000000011368684 55.43111345843287552
1.007140329435344483500 139.04391973810587047 1.007140329435344483500 59.90874180727841036
1.267914553968893187630 153.21325285051082687 1.267914553968893187630 64.77818889027516036
1.596209851975103788391 168.49534682192290802 1.596209851975103788391 70.07204350193282494
2.009509145207672986544 184.96681679690470901 2.009509145207672986544 75.75370661672967287
2.529822128134725289783 202.68224279174859248 2.529822128134725289783 81.71631806677538634
3.184857364427998049905 221.65465678872524791 3.184857364427998049905 87.77670427149929822
4.009497869018190385759 241.83756580157066196 4.009497869018190385759 93.69293542714743239
5.009497869018204596614 262.39625469721704576 5.009497869018204596614 99.02334931887735081
6.009497869018190385759 279.83662528695913352 6.009497869018190385759 102.93839669522132851
7.009497869018190385759 294.93905424367716250 7.009497869018190385759 105.81274612312435579
8.009497869018204596614 308.20718167327197534 8.009497869018204596614 107.88711461082863252
9.009497869018190385759 319.99488819940006579 9.009497869018190385759 109.32232003824120170
10.009497869018190385759 330.56549332700313926 10.009497869018190385759 110.25328243861189037
11.009497869018204596614 340.11268705322521555 11.009497869018204596614 110.91246068219980714
12.009497869018190385759 348.78871954911704734 12.009497869018190385759 111.25745206610012872
13.009497869018190385759 356.71364607670471969 13.009497869018190385759 111.34871467591827354
14.009497869018204596614 363.98462070520230327 14.009497869018204596614 111.23098119496629010
15.009497869018190385759 370.68159055068872476 15.009497869018190385759 110.90978152860949990
16.009497869018190385759 376.87142642403819082 16.009497869018190385759 110.39697155837137643
17.009497869018190385759 382.60376074088111409 17.009497869018190385759 109.61561639947815650
18.009497869018204596614 387.92398635029604748 18.009497869018204596614 108.71148391663766120
19.009497869018190385759 392.86978531078210608 19.009497869018190385759 107.52356659574265052
20.009497869018190385759 397.47203389547013330 20.009497869018190385759 106.35451656572055867
21.009497869018204596614 401.75809097033624084 21.009497869018204596614 105.10642489060874993
22.009497869018190385759 405.75814868376920685 22.009497869018190385759 103.79820246783465620
23.009497869018190385759 409.50329286553534303 23.009497869018190385759 102.39764186578221938
24.009497869018204596614 413.01440592212685488 24.009497869018204596614 100.99288027732836781
25.009497869018190385759 416.31038133844236881 25.009497869018190385759 99.51212562839506859
26.009497869018190385759 419.40833800904687223 26.009497869018190385759 97.80935004714000058
27.009497869018204596614 422.32226703607341278 27.009497869018204596614 96.06870451485643514
28.009497869018190385759 425.05620225936917222 28.009497869018190385759 94.25748927180001147
29.009497869018190385759 427.61701765196534097 29.009497869018190385759 92.42208658107887231
30.009497869018190385759 430.01830909179750506 30.009497869018190385759 90.58279821384176955
31.009497869018190385759 432.26581071560673308 31.009497869018190385759 88.69358230885418948
32.009497869018190385759 434.37909173507188143 32.009497869018190385759 86.79667265288286160
33.009497869018190385759 436.37385208893391564 33.009497869018190385759 84.93155140380194723
34.009497869018190385759 438.25794702207491582 34.009497869018190385759 83.05092507552720349
35.009497869018190385759 440.03636810970357374 35.009497869018190385759 81.09485153482555120
36.009497869018190385759 441.71585765871810736 36.009497869018190385759 79.27477484287901177
37.009497869018190385759 443.30031966270860266 37.009497869018190385759 77.46723472943702404
38.009497869018190385759 444.79337178025599542 38.009497869018190385759 75.64391366609170575
39.009497869018190385759 446.19833604978560970 39.009497869018190385759 73.78361227481538265
40.009497869018190385759 447.52330787231369413 40.009497869018190385759 71.84983128246524586
41.009497869018190385759 448.77341861115053234 41.009497869018190385759 70.06260704251833715
42.009497869018190385759 449.95336178404716065 42.009497869018190385759 68.22945338925586611
43.009497869018190385759 451.06772085745808454 43.009497869018190385759 66.45690166188731496
44.009497869018190385759 452.12055227392431789 44.009497869018190385759 64.67061754645695260
46.009497869018190385759 454.05605061680967083 46.009497869018190385759 61.22491524588309630
48.009497869018190385759 455.78599513789987441 48.009497869018190385759 57.93123020890634933
50.009497869018218807469 457.33261614999651101 50.009497869018218807469 54.74258763806457750
52.009497869018190385759 458.71720084191991873 52.009497869018190385759 51.67534212496688895
54.009497869018190385759 459.95720995646024676 54.009497869018190385759 48.75428545924621204
56.009497869018190385759 461.06880116950122783 56.009497869018190385759 45.95428551692199193
58.009497869018190385759 462.06560081456746047 58.009497869018190385759 43.28733472268011440
60.009497869018190385759 462.96049624499329411 60.009497869018190385759 40.75007634615165131
62.009497869018190385759 463.76382764849364548 62.009497869018190385759 38.33279530358174725
64.009497869018190385759 464.48620391348924841 64.009497869018190385759 36.03497386040047701
66.009497869018218807469 465.13555177156166565 66.009497869018218807469 33.87767526353862735
68.009497869018190385759 465.71970071926926948 68.009497869018190385759 31.83833232793950430
70.009497869018190385759 466.24554127773018308 70.009497869018190385759 29.88231015578931959
72.009497869018190385759 466.71871781976841476 72.009497869018190385759 28.06202249117532332
74.009497869018218807469 467.14506510507413850 74.009497869018218807469 26.32749526689161712
76.009497869018190385759 467.52934390464326952 76.009497869018190385759 24.68723815475662420
78.009497869018190385759 467.87575782779020983 78.009497869018190385759 23.13328695047051653
80.009497869018218807469 468.18821569724798337 80.009497869018218807469 21.67476989902649720
82.009497869018190385759 468.46998492926519475 82.009497869018190385759 20.28920408151856236
84.009497869018190385759 468.72399686573157851 84.009497869018190385759 18.93799529816095983
86.009497869018218807469 468.95323290607979061 86.009497869018218807469 17.70071496363974006
88.009497869018190385759 469.16010885503834515 88.009497869018190385759 16.49476717904632395
91.009497869018190385759 469.43317613692488521 91.009497869018190385759 14.82630141237480359
94.009497869018190385759 469.66757619786318401 94.009497869018190385759 13.27441178538868272
97.009497869018190385759 469.86829091551305737 97.009497869018190385759 11.87223351310206532
99.504748934509137825444 470.01311832523640533 99.504748934509137825444 10.09008847511343276
nan nan nan nan

