Time Pressure difference Time.1 Pressure.1 difference.1
(hr) (psi) (hr) (psi)
0.000200000000006639311 0.07658618297798982 0.000200000000006639311 0.06138787538377567
0.000399999999999067768 0.14321297144498873 0.000399999999999067768 0.13085695394913202
0.000600000000019917934 0.20450898466919931 0.000600000000019917934 0.17963868790246415
0.000799999999998135536 0.26199716697917869 0.000799999999998135536 0.22491121037164188
0.001007140329448930061 0.31840607758901035 0.001007140329448930061 0.26876377595430612
0.001267914553963578328 0.38576617670652547 0.001267914553963578328 0.32020944458803580
0.001596209851982166583 0.46586605274641779 0.001596209851982166583 0.37988287325942804
0.002009509145210586212 0.56070583335816404 0.002009509145210586212 0.44872764605223764
0.002529822128153114136 0.67250850234480464 0.002529822128153114136 0.52773751829239857
0.003184857364431081805 0.80373162566258238 0.003184857364431081805 0.61796060144086185
0.004009497869020606231 0.95708056963597410 0.004009497869020606231 0.72050886255667268
0.005047658755856332391 1.13552456511323396 0.005047658755856332391 0.83657361940650443
0.006354625877790454069 1.34231701002401782 0.006354625877790454069 0.96744638694322593
0.007999999999995566213 1.58102106140697107 0.007999999999995566213 1.11454348711051177
0.010071403294347192059 1.85554116939803126 0.010071403294347192059 1.27943529057475613
0.012679145539706837553 2.17016199233922613 0.012679145539706837553 1.46388807372706320
0.015962098519764822413 2.52959900440180885 0.015962098519764822413 1.66992871643279184
0.020095091452077440408 2.93906691817837462 0.020095091452077440408 1.89991928749657801
0.025298221281346400247 3.40436423293480805 0.025298221281346400247 2.15657343351355069
0.031848573644282396344 3.93194863438532627 0.031848573644282396344 2.44280102520043529
0.040094978690177640601 4.52894922639898301 0.040094978690177640601 2.76129996782087295
0.050476587558421215363 5.20305294694962495 0.050476587558421215363 3.11394059561720926
0.063546258777947173257 5.96223204843375765 0.063546258777947173257 3.50118455800175665
0.079999999999998294697 6.81436135662457243 0.079999999999998294697 3.92183364814817281
0.100714032943528764008 7.76682814503477736 0.100714032943528764008 4.37316117485353129
0.126791455396883634421 8.82620741849927093 0.126791455396883634421 4.85162952474264042
0.159620985197506115583 9.99819880168619868 0.159620985197506115583 5.35409267499024821
0.200950914520774404082 11.28785061093270770 0.200950914520774404082 5.87795884131658752
0.252982212813464002465 12.69956554161989182 0.252982212813464002465 6.42241491783145069
0.318485736442795541734 14.23787857695276671 0.318485736442795541734 6.99014953067635503
0.400949786901833249431 15.90824109843967626 0.400949786901833249431 7.58337462294093090
0.504765875584169521062 17.71595490109431026 0.504765875584169521062 8.20853575590249562
0.635462587779429100010 19.66908924227864475 0.635462587779429100010 8.87301957016729759
0.800000000000011368684 21.77587631258409928 0.800000000000011368684 9.58714226482329579
1.007140329435344483500 24.04847668426359064 1.007140329435344483500 10.36157484088148628
1.267914553968893187630 26.49914750559149823 1.267914553968893187630 11.20377480806645742
1.596209851975103788391 29.14227696605585294 1.596209851975103788391 12.11937859310158849
2.009509145207672986544 31.99111611267219857 2.009509145207672986544 13.10205617584947113
2.529822128134725289783 35.05510488536532421 2.529822128134725289783 14.13332545180077560
3.184857364427998049905 38.33649724333298536 3.184857364427998049905 15.18150545576245669
4.009497869018190385759 41.82725194681253811 4.009497869018190385759 16.20475298268273079
5.009497869018204596614 45.38300002624823293 5.009497869018204596614 17.12667991364230957
6.009497869018190385759 48.39941632321620801 6.009497869018190385759 17.80381074917350048
7.009497869018190385759 51.01147164591900918 7.009497869018190385759 18.30094665651521879
8.009497869018204596614 53.30627355984263716 8.009497869018204596614 18.65972108048923062
9.009497869018190385759 55.34502783322956532 9.009497869018190385759 18.90794843428700034
10.009497869018190385759 57.17327714775212399 10.009497869018190385759 19.06896394378507154
11.009497869018204596614 58.82452134568360691 11.009497869018204596614 19.18297275949996816
12.009497869018190385759 60.32509300377810746 12.009497869018190385759 19.24264108061479917
13.009497869018190385759 61.69575639691433366 13.009497869018190385759 19.25842549426259609
14.009497869018204596614 62.95331490184316436 14.009497869018204596614 19.23806278529291447
15.009497869018190385759 64.11159584996188698 15.009497869018190385759 19.18250938387900106
16.009497869018190385759 65.18216494755377255 16.009497869018190385759 19.09381583556737638
17.009497869018190385759 66.17360641744798500 17.009497869018190385759 18.95867579236257328
18.009497869018204596614 67.09377122410779748 18.009497869018204596614 18.80230067740588495
19.009497869018190385759 67.94917670469502013 19.009497869018190385759 18.59684327913787882
20.009497869018190385759 68.74516309512847556 20.009497869018190385759 18.39464909155543992
21.009497869018204596614 69.48646227474368686 21.009497869018204596614 18.17878417919333955
22.009497869018190385759 70.17829615599781334 22.009497869018190385759 17.95251929475127994
23.009497869018190385759 70.82604121888191173 23.009497869018190385759 17.71028397049692416
24.009497869018204596614 71.43330920036784448 24.009497869018204596614 17.46732206054421610
25.009497869018190385759 72.00336784155449266 25.009497869018190385759 17.21121669673499710
26.009497869018190385759 72.53917795753956455 26.009497869018190385759 16.91671148614056719
27.009497869018204596614 73.04315939303155858 27.009497869018204596614 16.61565644124875263
28.009497869018190385759 73.51600982473365775 28.009497869018190385759 16.30239594323585095
29.009497869018190385759 73.95891814735249170 29.009497869018190385759 15.98495208163314096
30.009497869018190385759 74.37423584921025110 30.009497869018190385759 15.66683616906068188
31.009497869018190385759 74.76295468351689522 31.009497869018190385759 15.34008499052509578
32.009497869018190385759 75.12845926235519300 32.009497869018190385759 15.01200313178791745
33.009497869018190385759 75.47346498393510217 33.009497869018190385759 14.68941926795316810
34.009497869018190385759 75.79933045979282724 34.009497869018190385759 14.36415370803143254
35.009497869018190385759 76.10691901268457116 35.009497869018190385759 14.02583910193523842
36.009497869018190385759 76.39739676487262443 36.009497869018190385759 13.71104596339102422
37.009497869018190385759 76.67143893537412680 37.009497869018190385759 13.39842110100325989
38.009497869018190385759 76.92967121985559231 38.009497869018190385759 13.08306682904101947
39.009497869018190385759 77.17266818471134115 39.009497869018190385759 12.76131658841146432
40.009497869018190385759 77.40182997791589514 40.009497869018190385759 12.42685761174713299
41.009497869018190385759 77.61804409941282756 41.009497869018190385759 12.11774650106449158
42.009497869018190385759 77.82212232114022754 42.009497869018190385759 11.80069162392790005
43.009497869018190385759 78.01485738100690526 43.009497869018190385759 11.49411821196164141
44.009497869018190385759 78.19695086498690273 44.009497869018190385759 11.18516970143123324
46.009497869018190385759 78.53170686768719122 46.009497869018190385759 10.58921490101751850
48.009497869018190385759 78.83091110875626839 48.009497869018190385759 10.01955239462216873
50.009497869018218807469 79.09840845361574679 50.009497869018218807469 9.46805761035708215
52.009497869018190385759 79.33788064875975010 52.009497869018190385759 8.93755917255716525
54.009497869018190385759 79.55234763397896813 54.009497869018190385759 8.43234496936648270
56.009497869018190385759 79.74460397585713167 56.009497869018190385759 7.94806824978210624
58.009497869018190385759 79.91700643019247252 58.009497869018190385759 7.48680317530630823
60.009497869018190385759 80.07178394174412972 60.009497869018190385759 7.04796917936585121
62.009497869018190385759 80.21072490775834751 62.009497869018190385759 6.62988598017923358
64.009497869018190385759 80.33566419887392840 64.009497869018190385759 6.23246403245920266
66.009497869018218807469 80.44797279067890372 66.009497869018218807469 5.85934635061202691
68.009497869018190385759 80.54900484138305217 68.009497869018190385759 5.50662980514676903
70.009497869018190385759 80.63995210778352885 70.009497869018190385759 5.16832408354846695
72.009497869018190385759 80.72179081788448229 72.009497869018190385759 4.85349445602088991
74.009497869018218807469 80.79553012823609492 74.009497869018218807469 4.55349760905358192
76.009497869018190385759 80.86199344262698219 76.009497869018190385759 4.26980534123149180
78.009497869018190385759 80.92190780040397158 78.009497869018190385759 4.00104019583609549
80.009497869018218807469 80.97594925581333314 80.009497869018218807469 3.74878095737879669
82.009497869018190385759 81.02468292801756888 82.009497869018190385759 3.50913907070289577
84.009497869018190385759 81.06861581011081341 84.009497869018190385759 3.27543943836117268
86.009497869018218807469 81.10826355293833956 86.009497869018218807469 3.06144441195026973
88.009497869018190385759 81.14404398436198562 88.009497869018190385759 2.85286853725643930
91.009497869018190385759 81.19127260229832643 91.009497869018190385759 2.56429741408998169
94.009497869018190385759 81.23181349334110735 94.009497869018190385759 2.29588883080621864
97.009497869018190385759 81.26652830299754271 97.009497869018190385759 2.05337372081953973
99.504748934509137825444 81.29157706883019330 99.504748934509137825444 1.74514108846301497
nan nan nan nan

