Time Pressure difference Time.1 Pressure.1 difference.1
(hr) (psi) (hr) (psi)
0.000200000000006639311 0.40938795991870919 0.000200000000006639311 0.32814609750600082
0.000399999999999067768 0.76553842917866688 0.000399999999999067768 0.69948989929172378
0.000600000000019917934 1.09319348168626540 0.000600000000019917934 0.96025044078771726
0.000799999999998135536 1.40049394712506436 0.000799999999998135536 1.20225265180477647
0.001007140329448930061 1.70202521474852797 0.001007140329448930061 1.43666454782847253
0.001267914553963578328 2.06209556275851780 0.001267914553963578328 1.71166503107059143
0.001596209851982166583 2.49026580922630592 0.001596209851982166583 2.03064663160494252
0.002009509145210586212 2.99722754558727678 0.002009509145210586212 2.39865323526105234
0.002529822128153114136 3.59486363071586501 0.002529822128153114136 2.82099691596300284
0.003184857364431081805 4.29631087172362225 0.003184857364431081805 3.30328030588388000
0.004009497869020606231 5.11603068132684413 0.004009497869020606231 3.85144737439384999
0.005047658755856332391 6.06989494805983298 0.005047658755856332391 4.47186625646385938
0.006354625877790454069 7.17529456267383914 0.006354625877790454069 5.17144068656924372
0.007999999999995566213 8.45127621915726301 0.007999999999995566213 5.95774154928164457
0.010071403294347192059 9.91871097823674752 0.010071403294347192059 6.83916318961778735
0.012679145539706837553 11.60050228632240632 0.012679145539706837553 7.82514715774102854
0.015962098519764822413 13.52185649625694097 0.015962098519764822413 8.92652804784074227
0.020095091452077440408 15.71064861717167638 0.020095091452077440408 10.15593219134534486
0.025298221281346400247 18.19787426332424829 0.025298221281346400247 11.52786526278152657
0.031848573644282396344 21.01805270016884108 0.031848573644282396344 13.05788184379868788
0.040094978690177640601 24.20929222838729089 0.040094978690177640601 14.76040346435157424
0.050476587558421215363 27.81268302551254479 0.050476587558421215363 16.64542791111744791
0.063546258777947173257 31.87084040435499688 0.063546258777947173257 18.71542291004575276
0.079999999999998294697 36.42585888813862738 0.079999999999998294697 20.96398350101023311
0.100714032943528764008 41.51722681164044815 0.100714032943528764008 23.37653428012615109
0.126791455396883634421 47.18009056434155468 0.126791455396883634421 25.93416509589702201
0.159620985197506115583 53.44491723083168466 0.159620985197506115583 28.62005902631150889
0.200950914520774404082 60.33869235662210428 0.200950914520774404082 31.42036180631048836
0.252982212813464002465 67.88495034974997111 0.252982212813464002465 34.33072701531721549
0.318485736442795541734 76.10793275680207159 0.318485736442795541734 37.36552658216088219
0.400949786901833249431 85.03677968984118252 0.400949786901833249431 40.53658434808424715
0.504765875584169521062 94.69983165312230255 0.504765875584169521062 43.87835476791516243
0.635462587779429100010 105.14022249508950324 0.635462587779429100010 47.43032279325792189
0.800000000000011368684 116.40195701635863657 0.800000000000011368684 51.24763319741907708
1.007140329435344483500 128.55003900315443843 1.007140329435344483500 55.38732733125739571
1.267914553968893187630 141.64998848443454449 1.267914553968893187630 59.88926897402797778
1.596209851975103788391 155.77871687309854565 1.596209851975103788391 64.78358738857939159
2.009509145207672986544 171.00705703864773000 2.009509145207672986544 70.03644573999535794
2.529822128134725289783 187.38546975086188695 2.529822128134725289783 75.54904877871686608
3.184857364427998049905 204.92600344617994779 3.184857364427998049905 81.15204734534840725
4.009497869018190385759 223.58567404296155701 4.009497869018190385759 86.62177048924951350
5.009497869018204596614 242.59276377667239899 5.009497869018204596614 91.54988899292435178
6.009497869018190385759 258.71687998228298966 6.009497869018190385759 95.16946109558197975
7.009497869018190385759 272.67950298000346265 7.009497869018190385759 97.82687849119044188
8.009497869018204596614 284.94626230170428016 8.009497869018204596614 99.74469086661514439
9.009497869018190385759 295.84433059944529987 9.009497869018190385759 101.07157890327960104
10.009497869018190385759 305.61715420798407195 10.009497869018190385759 101.93227999041475584
11.009497869018204596614 314.44380501147236373 11.009497869018204596614 102.54170893259981767
12.009497869018190385759 322.46504260201385250 12.009497869018190385759 102.86066323092275354
13.009497869018190385759 329.79186146714209826 13.009497869018190385759 102.94503809660368177
14.009497869018204596614 336.51408329348890902 14.009497869018204596614 102.83619016138393931
15.009497869018190385759 342.70562145252347364 15.009497869018190385759 102.53923197928048694
16.009497869018190385759 348.42829990146924501 16.009497869018190385759 102.06512464830561271
17.009497869018190385759 353.72800521326746548 17.009497869018190385759 101.34273969008357597
18.009497869018204596614 358.64670436159445899 18.009497869018204596614 100.50684362104237835
19.009497869018190385759 363.21923547600607662 19.009497869018190385759 99.40858043757339146
20.009497869018190385759 367.47414454486863633 20.009497869018190385759 98.32776059849636852
21.009497869018204596614 371.43672561408448018 21.009497869018204596614 97.17386452150620357
22.009497869018190385759 375.13489217933386044 22.009497869018190385759 95.96437586648863771
23.009497869018190385759 378.59738397002325883 23.009497869018190385759 94.66951795138356829
24.009497869018204596614 381.84350736196631715 24.009497869018204596614 93.37077610545452444
25.009497869018190385759 384.89072991667313772 25.009497869018190385759 92.00177652436525477
26.009497869018190385759 387.75487853666601268 26.009497869018190385759 90.42751230773320970
27.009497869018204596614 390.44888839184142171 27.009497869018204596614 88.81823624958425967
28.009497869018190385759 392.97648888130356681 28.009497869018190385759 87.14371649656982299
29.009497869018190385759 395.34403518766600882 29.009497869018190385759 85.44683476363896091
30.009497869018190385759 397.56409708486938825 30.009497869018190385759 83.74636061279709054
31.009497869018190385759 399.64197594461751351 31.009497869018190385759 81.99972704026141912
32.009497869018190385759 401.59576405695327139 32.009497869018190385759 80.24598037719358956
33.009497869018190385759 403.43997645958040721 33.009497869018190385759 78.52162299596784578
34.009497869018190385759 405.18187554871076372 34.009497869018190385759 76.78293073020438442
35.009497869018190385759 406.82607617689575363 35.009497869018190385759 74.97448538125381390
36.009497869018190385759 408.37881179768271522 36.009497869018190385759 73.29177296794473762
37.009497869018190385759 409.84369176363622955 37.009497869018190385759 71.62065097627197474
38.009497869018190385759 411.22406070250082166 38.009497869018190385759 69.93493904978289777
39.009497869018190385759 412.52298993282062156 39.009497869018190385759 68.21503776350856185
40.009497869018190385759 413.74796388195039754 40.009497869018190385759 66.42720250643014879
41.009497869018190385759 414.90372664049766627 41.009497869018190385759 64.77486311478111247
42.009497869018190385759 415.99461749845869463 42.009497869018190385759 63.08006068063276928
43.009497869018190385759 417.02487400029144737 43.009497869018190385759 61.44128644212222667
44.009497869018190385759 417.99824644193006407 44.009497869018190385759 59.78981622219605185
46.009497869018190385759 419.78766943818249047 46.009497869018190385759 56.60416692543909534
48.009497869018190385759 421.38705210862440254 48.009497869018190385759 53.55906189125304451
50.009497869018218807469 422.81694700660051467 50.009497869018218807469 50.61107158990876087
52.009497869018190385759 424.09703474064292550 52.009497869018190385759 47.77531630421466957
54.009497869018190385759 425.24345826163306583 54.009497869018190385759 45.07471674534083661
56.009497869018190385759 426.27115579821804658 56.009497869018190385759 42.48603755338071863
58.009497869018190385759 427.19272528139254064 58.009497869018190385759 40.02036606436463018
60.009497869018190385759 428.02008143405038254 60.009497869018190385759 37.67459888606473584
62.009497869018190385759 428.76278405238093683 62.009497869018190385759 35.43975414859444584
64.009497869018190385759 429.43064135398066128 64.009497869018190385759 33.31535319169100973
66.009497869018218807469 430.03098182653820913 66.009497869018218807469 31.32086958327155912
68.009497869018190385759 430.57104406121118245 68.009497869018190385759 29.43543932205727742
70.009497869018190385759 431.05719853978831679 70.009497869018190385759 27.62704146478635181
72.009497869018190385759 431.49466364469162727 72.009497869018190385759 25.94413400127530167
74.009497869018218807469 431.88883377638927641 74.009497869018218807469 24.34051449203187190
76.009497869018190385759 432.24411040240607917 76.009497869018190385759 22.82405036949197452
78.009497869018190385759 432.56437987852302740 78.009497869018190385759 21.38737850137840013
80.009497869018218807469 432.85325602198400929 80.009497869018218807469 20.03893820853393137
82.009497869018190385759 433.11375965158481449 82.009497869018190385759 18.75794339612093253
84.009497869018190385759 433.34860087586503141 84.009497869018190385759 17.50871263414881440
86.009497869018218807469 433.56053608297946766 86.009497869018218807469 16.36481194751598522
88.009497869018190385759 433.75179875277137853 88.009497869018190385759 15.24987909006169318
91.009497869018190385759 434.00425718319473845 91.009497869018190385759 13.70733526804463054
94.009497869018190385759 434.22096667349615018 94.009497869018190385759 12.27256938649142270
97.009497869018190385759 434.40653311056865959 97.009497869018190385759 10.97621588947172100
99.504748934509137825444 434.54043014974689640 99.504748934509137825444 9.32857236378411692
nan nan nan nan

