Time Pressure difference Time.1 Pressure.1 difference.1
(hr) (psi) (hr) (psi)
0.000200000000006639311 0.05848399427410132 0.000200000000006639311 0.04687801392942869
0.000399999999999067768 0.10936263273980956 0.000399999999999067768 0.09992712847024626
0.000600000000019917934 0.15617049738375219 0.000600000000019917934 0.13717863439824535
0.000799999999998135536 0.20007056387500921 0.000799999999998135536 0.17175037882925379
0.001007140329448930061 0.24314645924978975 0.001007140329448930061 0.20523779254692467
0.001267914553963578328 0.29458508039407399 0.001267914553963578328 0.24452357586722731
0.001596209851982166583 0.35575225846090081 0.001596209851982166583 0.29009237594356324
0.002009509145210586212 0.42817536365532521 0.002009509145210586212 0.34266474789443607
0.002529822128153114136 0.51355194724512354 0.002529822128153114136 0.40299955942328614
0.003184857364431081805 0.61375869596051746 0.003184857364431081805 0.47189718655483998
0.004009497869020606231 0.73086152590383480 0.004009497869020606231 0.55020676777055000
0.005047658755856332391 0.86712784972283330 0.005047658755856332391 0.63883803663769423
0.006354625877790454069 1.02504208038197731 0.006354625877790454069 0.73877724093846342
0.007999999999995566213 1.20732517416532348 0.007999999999995566213 0.85110593561166348
0.010071403294347192059 1.41695871117667838 0.010071403294347192059 0.97702331280254107
0.012679145539706837553 1.65721461233177259 0.012679145539706837553 1.11787816539157547
0.015962098519764822413 1.93169378517956325 0.015962098519764822413 1.27521829254867747
0.020095091452077440408 2.24437837388166805 0.020095091452077440408 1.45084745590647768
0.025298221281346400247 2.59969632333203515 0.025298221281346400247 1.64683789468307529
0.031848573644282396344 3.00257895716697698 0.031848573644282396344 1.86541169197124113
0.040094978690177640601 3.45847031834104124 0.040094978690177640601 2.10862906633593949
0.050476587558421215363 3.97324043221607770 0.050476587558421215363 2.37791827301677783
0.063546258777947173257 4.55297720062214228 0.063546258777947173257 2.67363184429225065
0.079999999999998294697 5.20369412687694677 0.079999999999998294697 2.99485478585860454
0.100714032943528764008 5.93103240166292078 0.100714032943528764008 3.33950489716087873
0.126791455396883634421 6.74001293776307975 0.126791455396883634421 3.70488072798528911
0.159620985197506115583 7.63498817583309641 0.159620985197506115583 4.08857986090164438
0.200950914520774404082 8.61981319380315902 0.200950914520774404082 4.48862311518721313
0.252982212813464002465 9.69785004996428235 0.252982212813464002465 4.90438957361674444
0.318485736442795541734 10.87256182240029645 0.318485736442795541734 5.33793236888012590
0.400949786901833249431 12.14811138426302684 0.400949786901833249431 5.79094062115489283
0.504765875584169521062 13.52854737901747306 0.504765875584169521062 6.26833639541645127
0.635462587779429100010 15.02003178501278491 0.635462587779429100010 6.77576039903684624
0.800000000000011368684 16.62885100233694757 0.800000000000011368684 7.32109045677415349
1.007140329435344483500 18.36429128616492434 1.007140329435344483500 7.91247533303677031
1.267914553968893187630 20.23571264063350483 1.267914553968893187630 8.55560985343256775
1.596209851975103788391 22.25410241044265192 1.596209851975103788391 9.25479819836848527
2.009509145207672986544 24.42957957694967419 2.009509145207672986544 10.00520653428505113
2.529822128134725289783 26.76935282155169915 2.529822128134725289783 10.79272125410240868
3.184857364427998049905 29.27514334945427876 3.184857364427998049905 11.59314962076405919
4.009497869018190385759 31.94081057756593367 4.009497869018190385759 12.37453864132135983
5.009497869018204596614 34.65610911095319580 5.009497869018204596614 13.07855557041776429
6.009497869018190385759 36.95955428318328018 6.009497869018190385759 13.59563729936885323
7.009497869018190385759 38.95421471142906000 7.009497869018190385759 13.97526835588434935
8.009497869018204596614 40.70660890024346656 8.009497869018204596614 14.24924155237359358
9.009497869018190385759 42.26347579992076220 9.009497869018190385759 14.43879698618279939
10.009497869018190385759 43.65959345828343885 10.009497869018190385759 14.56175428434496411
11.009497869018204596614 44.92054357306748358 11.009497869018204596614 14.64881556179997446
12.009497869018190385759 46.06643465743055543 12.009497869018190385759 14.69438046156039412
13.009497869018190385759 47.11312306673458750 13.009497869018190385759 14.70643401380052850
14.009497869018204596614 48.07344047049841862 14.009497869018204596614 14.69088430876913343
15.009497869018190385759 48.95794592178907578 15.009497869018190385759 14.64846171132578334
16.009497869018190385759 49.77547141449561252 16.009497869018190385759 14.58073209261508829
17.009497869018190385759 50.53257217332392059 17.009497869018190385759 14.47753424144051060
18.009497869018204596614 51.23524348022777986 18.009497869018204596614 14.35812051729176808
19.009497869018190385759 51.88846221085801602 19.009497869018190385759 14.20122577679619802
20.009497869018190385759 52.49630636355265523 20.009497869018190385759 14.04682294264233633
21.009497869018204596614 53.06238937344063800 21.009497869018204596614 13.88198064592945791
22.009497869018190385759 53.59069888276196991 22.009497869018190385759 13.70919655235552170
23.009497869018190385759 54.08534056714618288 23.009497869018190385759 13.52421685019765185
24.009497869018204596614 54.54907248028089839 24.009497869018204596614 13.33868230077921879
25.009497869018190385759 54.98438998809616152 25.009497869018190385759 13.14311093205217951
26.009497869018190385759 55.39355407666656816 26.009497869018190385759 12.91821604396188761
27.009497869018204596614 55.77841262740592043 27.009497869018204596614 12.68831946422632129
28.009497869018190385759 56.13949841161479526 28.009497869018190385759 12.44910235665283160
29.009497869018190385759 56.47771931252372468 29.009497869018190385759 12.20669068051985207
30.009497869018190385759 56.79487101212420441 30.009497869018190385759 11.96376580182815630
31.009497869018190385759 57.09171084923107742 31.009497869018190385759 11.71424672003734457
32.009497869018190385759 57.37082343670760309 32.009497869018190385759 11.46371148245622784
33.009497869018190385759 57.63428235136863265 33.009497869018190385759 11.21737471370969175
34.009497869018190385759 57.88312507838724486 34.009497869018190385759 10.96899010431491206
35.009497869018190385759 58.11801088241367808 35.009497869018190385759 10.71064076875054560
36.009497869018190385759 58.33983025681182255 36.009497869018190385759 10.47025328113496201
37.009497869018190385759 58.54909882337661031 37.009497869018190385759 10.23152156803885404
38.009497869018190385759 58.74629438607154697 38.009497869018190385759 9.99070557854041397
39.009497869018190385759 58.93185570468866530 39.009497869018190385759 9.74500539478693817
40.009497869018190385759 59.10685198313576905 40.009497869018190385759 9.48960035806144830
41.009497869018190385759 59.27196094864252274 41.009497869018190385759 9.25355187354015918
42.009497869018190385759 59.42780249977980844 42.009497869018190385759 9.01143724009039637
43.009497869018190385759 59.57498200004163635 43.009497869018190385759 8.77732663458889029
44.009497869018190385759 59.71403520599000814 44.009497869018190385759 8.54140231745657807
46.009497869018190385759 59.96966706259750168 46.009497869018190385759 8.08630956077701413
48.009497869018190385759 60.19815030123205446 48.009497869018190385759 7.65129455589329144
50.009497869018218807469 60.40242100094293676 50.009497869018218807469 7.23015308427268000
52.009497869018190385759 60.58529067723470973 52.009497869018190385759 6.82504518631638124
54.009497869018190385759 60.74906546594758083 54.009497869018190385759 6.43924524933440434
56.009497869018190385759 60.89587939974543929 56.009497869018190385759 6.06943393619724514
58.009497869018190385759 61.02753218305607419 58.009497869018190385759 5.71719515205209028
60.009497869018190385759 61.14572591915005972 60.009497869018190385759 5.38208555515210474
62.009497869018190385759 61.25182629319727567 62.009497869018190385759 5.06282202122777747
64.009497869018190385759 61.34723447914009142 64.009497869018190385759 4.75933617024157307
66.009497869018218807469 61.43299740379116258 66.009497869018218807469 4.47440994046736584
68.009497869018190385759 61.51014915160159546 68.009497869018190385759 4.20506276029389703
70.009497869018190385759 61.57959979139832996 70.009497869018190385759 3.94672020925519318
72.009497869018190385759 61.64209480638452021 72.009497869018190385759 3.70630485732504322
74.009497869018218807469 61.69840482519848024 74.009497869018218807469 3.47721635600455325
76.009497869018190385759 61.74915862891514706 76.009497869018190385759 3.26057862421313871
78.009497869018190385759 61.79491141121757636 78.009497869018190385759 3.05533978591120015
80.009497869018218807469 61.83617943171200437 80.009497869018218807469 2.86270545836199020
82.009497869018190385759 61.87339423594068677 82.009497869018190385759 2.67970619944584776
84.009497869018190385759 61.90694298226642900 84.009497869018190385759 2.50124466202125895
86.009497869018218807469 61.93721944042563621 86.009497869018218807469 2.33783027821656963
88.009497869018190385759 61.96454267896733370 88.009497869018190385759 2.17855415572309896
91.009497869018190385759 62.00060816902781369 91.009497869018190385759 1.95819075257780417
94.009497869018190385759 62.03156666764230920 94.009497869018190385759 1.75322419807020324
97.009497869018190385759 62.05807615865266769 97.009497869018190385759 1.56803084135310300
99.504748934509137825444 62.07720430710670456 99.504748934509137825444 1.33265319482630251
nan nan nan nan

