Time Pressure difference Time.1 Pressure.1 difference.1
(hr) (psi) (hr) (psi)
0.000200000000006639311 0.06753508862604557 0.000200000000006639311 0.05413294465660218
0.000399999999999067768 0.12628780209239915 0.000399999999999067768 0.11539204120968914
0.000600000000019917934 0.18033974102647576 0.000600000000019917934 0.15840866115035473
0.000799999999998135536 0.23103386542709395 0.000799999999998135536 0.19833079460044784
0.001007140329448930061 0.28077626841940007 0.001007140329448930061 0.23700078425061538
0.001267914553963578328 0.34017562855029976 0.001267914553963578328 0.28236651022763160
0.001596209851982166583 0.41080915560365927 0.001596209851982166583 0.33498762460149567
0.002009509145210586212 0.49444059850674466 0.002009509145210586212 0.39569619697333686
0.002529822128153114136 0.59303022479496414 0.002529822128153114136 0.46536853885784230
0.003184857364431081805 0.70874516081154992 0.003184857364431081805 0.54492889399785094
0.004009497869020606231 0.84397104776990461 0.004009497869020606231 0.63535781516361134
0.005047658755856332391 1.00132620741803380 0.005047658755856332391 0.73770582802209927
0.006354625877790454069 1.18367954520299734 0.006354625877790454069 0.85311181394084457
0.007999999999995566213 1.39417311778614716 0.007999999999995566213 0.98282471136108751
0.010071403294347192059 1.63624994028735493 0.010071403294347192059 1.12822930168864866
0.012679145539706837553 1.91368830233549936 0.012679145539706837553 1.29088311955931934
0.015962098519764822413 2.23064639479068605 0.015962098519764822413 1.47257350449073465
0.020095091452077440408 2.59172264603002089 0.020095091452077440408 1.67538337170152785
0.025298221281346400247 3.00203027813342205 0.025298221281346400247 1.90170566409831321
0.031848573644282396344 3.46726379577615207 0.031848573644282396344 2.15410635858583799
0.040094978690177640601 3.99370977237001190 0.040094978690177640601 2.43496451707840622
0.050476587558421215363 4.58814668958285221 0.050476587558421215363 2.74592943431699332
0.063546258777947173257 5.25760462452794997 0.063546258777947173257 3.08740820114700343
0.079999999999998294697 6.00902774175075916 0.079999999999998294697 3.45834421700338890
0.100714032943528764008 6.84893027334884863 0.100714032943528764008 3.85633303600720545
0.126791455396883634421 7.78311017813117445 0.126791455396883634421 4.27825512636396432
0.159620985197506115583 8.81659348875964888 0.159620985197506115583 4.72133626794594630
0.200950914520774404082 9.95383190236793247 0.200950914520774404082 5.18329097825189944
0.252982212813464002465 11.19870779579208708 0.252982212813464002465 5.66340224572409756
0.318485736442795541734 12.55522019967653158 0.318485736442795541734 6.16404094977824091
0.400949786901833249431 14.02817624135135155 0.400949786901833249431 6.68715762204791186
0.504765875584169521062 15.62225114005589255 0.504765875584169521062 7.23843607565947345
0.635462587779429100010 17.34456051364571749 0.635462587779429100010 7.82438998460207369
0.800000000000011368684 19.20236365746052343 0.800000000000011368684 8.45411636079872331
1.007140329435344483500 21.20638398521425572 1.007140329435344483500 9.13702508695912918
1.267914553968893187630 23.36743007311250153 1.267914553968893187630 9.87969233074951347
1.596209851975103788391 25.69818968824925065 1.596209851975103788391 10.68708839573503688
2.009509145207672986544 28.21034784481093638 2.009509145207672986544 11.55363135506726202
2.529822128134725289783 30.91222885345850813 2.529822128134725289783 12.46302335295159125
3.184857364427998049905 33.80582029639363384 3.184857364427998049905 13.38732753826325705
4.009497869018190385759 36.88403126218923944 4.009497869018190385759 14.28964581200204620
5.009497869018204596614 40.01955456860071791 5.009497869018204596614 15.10261774203003604
6.009497869018190385759 42.67948530319974054 6.009497869018190385759 15.69972402427117686
7.009497869018190385759 44.98284317867403104 7.009497869018190385759 16.13810750619978407
8.009497869018204596614 47.00644123004305186 8.009497869018204596614 16.45448131643141210
9.009497869018190385759 48.80425181657516021 9.009497869018190385759 16.67337271023490075
10.009497869018190385759 50.41643530301777787 10.009497869018190385759 16.81535911406501782
11.009497869018204596614 51.87253245937554169 11.009497869018204596614 16.91589416064997309
12.009497869018190385759 53.19576383060433500 12.009497869018190385759 16.96851077108759753
13.009497869018190385759 54.40443973182446058 13.009497869018190385759 16.98242975403156407
14.009497869018204596614 55.51337768617078439 14.009497869018204596614 16.96447354703102306
15.009497869018190385759 56.53477088587548138 15.009497869018190385759 16.91548554760239043
16.009497869018190385759 57.47881818102469964 16.009497869018190385759 16.83727396409123145
17.009497869018190385759 58.35308929538594924 17.009497869018190385759 16.71810501690154283
18.009497869018204596614 59.16450735216779577 18.009497869018204596614 16.58021059734882741
19.009497869018190385759 59.91881945777651453 19.009497869018190385759 16.39903452796703931
20.009497869018190385759 60.62073472934056895 20.009497869018190385759 16.22073601709888635
21.009497869018204596614 61.27442582409216953 21.009497869018204596614 16.03038241256139784
22.009497869018190385759 61.88449751937989873 22.009497869018190385759 15.83085792355339905
23.009497869018190385759 62.45569089301405086 23.009497869018190385759 15.61725041034728889
24.009497869018204596614 62.99119084032436433 24.009497869018204596614 15.40300218066171922
25.009497869018190385759 63.49387891482533774 25.009497869018190385759 15.17716381439358919
26.009497869018190385759 63.96636601710306280 26.009497869018190385759 14.91746376505122740
27.009497869018204596614 64.41078601021874306 27.009497869018204596614 14.65198795273753873
28.009497869018190385759 64.82775411817422651 28.009497869018190385759 14.37574914994434216
29.009497869018190385759 65.21831872993810464 29.009497869018190385759 14.09582138107649563
30.009497869018190385759 65.58455343066722776 30.009497869018190385759 13.81530098544441998
31.009497869018190385759 65.92733276637397921 31.009497869018190385759 13.52716585528122017
32.009497869018190385759 66.24964134953140160 32.009497869018190385759 13.23785730712207176
33.009497869018190385759 66.55387366765185675 33.009497869018190385759 12.95339699083142904
34.009497869018190385759 66.84122776909003960 34.009497869018190385759 12.66657190617317319
35.009497869018190385759 67.11246494754912817 35.009497869018190385759 12.36823993534289201
36.009497869018190385759 67.36861351084222349 36.009497869018190385759 12.09064962226299222
37.009497869018190385759 67.61026887937536856 37.009497869018190385759 11.81497133452105608
38.009497869018190385759 67.83798280296356609 38.009497869018190385759 11.53688620379071672
39.009497869018190385759 68.05226194470000678 39.009497869018190385759 11.25316099159920213
40.009497869018190385759 68.25434098052583920 40.009497869018190385759 10.95822898490429154
41.009497869018190385759 68.44500252402768581 41.009497869018190385759 10.68564918730232627
42.009497869018190385759 68.62496241046002865 42.009497869018190385759 10.40606443200914910
43.009497869018190385759 68.79491969052428146 43.009497869018190385759 10.13572242327526496
44.009497869018190385759 68.95549303548845899 44.009497869018190385759 9.86328600944390566
46.009497869018190385759 69.25068696514235000 46.009497869018190385759 9.33776223089726543
48.009497869018190385759 69.51453070499415787 48.009497869018190385759 8.83542347525773053
50.009497869018218807469 69.75041472727933467 50.009497869018218807469 8.34910534731488063
52.009497869018190385759 69.96158566299722281 52.009497869018190385759 7.88130217943677280
54.009497869018190385759 70.15070654996328869 54.009497869018190385759 7.43579510935044397
56.009497869018190385759 70.32024168780128548 56.009497869018190385759 7.00875109298967569
58.009497869018190385759 70.47226930662426980 58.009497869018190385759 6.60199916367919926
60.009497869018190385759 70.60875493044709117 60.009497869018190385759 6.21502736725897797
62.009497869018190385759 70.73127560047781515 62.009497869018190385759 5.84635400070350553
64.009497869018190385759 70.84144933900701346 64.009497869018190385759 5.49590010135038742
66.009497869018218807469 70.94048509723504026 66.009497869018218807469 5.16687814553969638
68.009497869018190385759 71.02957699649232381 68.009497869018190385759 4.85584628272033303
70.009497869018190385759 71.10977594959092585 70.009497869018190385759 4.55752214640182984
72.009497869018190385759 71.18194281213449415 72.009497869018190385759 4.27989965667296701
74.009497869018218807469 71.24696747671728758 74.009497869018218807469 4.01535698252906670
76.009497869018190385759 71.30557603577106818 76.009497869018190385759 3.76519198272231481
78.009497869018190385759 71.35840960581077752 78.009497869018190385759 3.52818999087364782
80.009497869018218807469 71.40606434376266520 80.009497869018218807469 3.30574320787039344
82.009497869018190385759 71.44903858197913848 82.009497869018190385759 3.09442263507437199
84.009497869018190385759 71.48777939618861410 84.009497869018190385759 2.88834205019121582
86.009497869018218807469 71.52274149668198788 86.009497869018218807469 2.69963734508341924
88.009497869018190385759 71.55429333166466677 88.009497869018190385759 2.51571134648976935
91.009497869018190385759 71.59594038566307006 91.009497869018190385759 2.26124408333389315
94.009497869018190385759 71.63169008049170827 94.009497869018190385759 2.02455651443821072
97.009497869018190385759 71.66230223082509099 97.009497869018190385759 1.81070228108632136
99.504748934509137825444 71.68439068796844538 99.504748934509137825444 1.53889714164465863
nan nan nan nan

