Time Pressure difference Time.1 Pressure.1 difference.1
(hr) (psi) (hr) (psi)
0.000200000000006639311 0.57509261036199633 0.000200000000006639311 0.46096713697271546
0.000399999999999067768 1.07539922194146076 0.000399999999999067768 0.98261676329075487
0.000600000000019917934 1.53567655760689670 0.000600000000019917934 1.34892323824941252
0.000799999999998135536 1.96736054477092370 0.000799999999998135536 1.68887872515432891
0.001007140329448930061 2.39094018262293240 0.001007140329448930061 2.01817162671142558
0.001267914553963578328 2.89675329054172748 0.001267914553963578328 2.40448182936106836
0.001596209851982166583 3.49823054153219148 0.001596209851982166583 2.85257503011170543
0.002009509145210586212 4.21039107594403106 0.002009509145210586212 3.36953668762862080
0.002529822128153114136 5.04992748124371538 0.002529822128153114136 3.96282900099564728
0.003184857364431081805 6.03529384361175492 0.003184857364431081805 4.64032233445592635
0.004009497869020606231 7.18680500472104278 0.004009497869020606231 5.41036654974374187
0.005047658755856332391 8.52675718894119505 0.005047658755856332391 6.28190736027065988
0.006354625877790454069 10.07958045708944184 0.006354625877790454069 7.26464286922822300
0.007999999999995566213 11.87203087929234613 0.007999999999995566213 8.36920836684802438
0.010071403294347192059 13.93342732657067096 0.010071403294347192059 9.60739590922498721
0.012679145539706837553 16.29594368792909620 0.012679145539706837553 10.99246862635049204
0.015962098519764822413 18.99498888759903537 0.015962098519764822413 12.53964654339532814
0.020095091452077440408 22.06972067650306712 0.020095091452077440408 14.26666664974703025
0.025298221281346400247 25.56368051276501419 0.025298221281346400247 16.19390596438357477
0.031848573644282396344 29.52535974547527076 0.031848573644282396344 18.34321497105053922
0.040094978690177640601 34.00829146368690914 0.040094978690177640601 20.73485248563673267
0.050476587558421215363 39.07019758345809635 0.050476587558421215363 23.38286301799831435
0.063546258777947173257 44.77094247278439809 0.063546258777947173257 26.29071313554046441
0.079999999999998294697 51.16965891428996827 0.079999999999998294697 29.44940539427628323
0.100714032943528764008 58.32181861635205422 0.100714032943528764008 32.83846482208197415
0.126791455396883634421 66.27679388800360982 0.126791455396883634421 36.43132715852200931
0.159620985197506115583 75.07738372902545620 0.159620985197506115583 40.20436863219950396
0.200950914520774404082 84.76149640573105160 0.200950914520774404082 44.13812729934092260
0.252982212813464002465 95.36219215798210769 0.252982212813464002465 48.22649747389798591
0.318485736442795541734 106.91352458693623362 0.318485736442795541734 52.48966829398790424
0.400949786901833249431 119.45642861191976181 0.400949786901833249431 56.94424944135644751
0.504765875584169521062 133.03071589367181105 0.504765875584169521062 61.63864122159510828
0.635462587779429100010 147.69697921929238760 0.635462587779429100010 66.62831059052898297
0.800000000000011368684 163.51703485631333024 0.800000000000011368684 71.99072282494583419
1.007140329435344483500 180.58219764728841028 1.007140329435344483500 77.80600744152825143
1.267914553968893187630 198.98450763289616816 1.267914553968893187630 84.13016355875357988
1.596209851975103788391 218.83200703601940518 1.596209851975103788391 91.00551561729011496
2.009509145207672986544 240.22419917333849071 2.009509145207672986544 98.38453092046967186
2.529822128134725289783 263.23196941192509257 2.529822128134725289783 106.12842566534035882
3.184857364427998049905 287.87224293630043803 3.184857364427998049905 113.99930460417989764
4.009497869018190385759 314.08463734606505113 4.009497869018190385759 121.68296330632669822
5.009497869018204596614 340.78507292437313936 5.009497869018204596614 128.60579644244134556
6.009497869018190385759 363.43561711796894542 6.009497869018190385759 133.69043344379372229
7.009497869018190385759 383.04977799571912556 7.009497869018190385759 137.42347216619609185
8.009497869018204596614 400.28165418572740464 8.009497869018204596614 140.11754193167368499
9.009497869018190385759 415.59084536588750325 9.009497869018190385759 141.98150369746420552
10.009497869018190385759 429.31933567312046307 10.009497869018190385759 143.19058379605883147
11.009497869018204596614 441.71867846849687567 11.009497869018204596614 144.04668635769976959
12.009497869018190385759 452.98660746473376548 12.009497869018190385759 144.49474120534387112
13.009497869018190385759 463.27904348955672731 13.009497869018190385759 144.61326780237183698
14.009497869018204596614 472.72216462656774638 14.009497869018204596614 144.46036236956314269
15.009497869018190385759 481.41980156425921678 15.009497869018190385759 144.04320682803685827
16.009497869018190385759 489.45880224254023005 16.009497869018190385759 143.37719891071503753
17.009497869018190385759 496.90362637101856080 17.009497869018190385759 142.36242004083166535
18.009497869018204596614 503.81322755557312121 18.009497869018204596614 141.18818508670238998
19.009497869018190385759 510.23654507343718478 19.009497869018190385759 139.64538680516261593
20.009497869018190385759 516.21367924160119856 20.009497869018190385759 138.12709226931630724
21.009497869018204596614 521.78016217216634232 21.009497869018204596614 136.50614301830631803
22.009497869018190385759 526.97520568049276335 22.009497869018190385759 134.80709943149597052
23.009497869018190385759 531.83918224360411386 23.009497869018190385759 132.98813236027689300
24.009497869018204596614 536.39921272276217223 24.009497869018204596614 131.16370929099565501
25.009497869018190385759 540.67983488294566996 25.009497869018190385759 129.24059083184644692
26.009497869018190385759 544.70328175388794989 26.009497869018190385759 127.02912443229188000
27.009497869018204596614 548.48772416949157105 27.009497869018204596614 124.76847473155883961
28.009497869018190385759 552.03840104754544882 28.009497869018190385759 122.41617317375283847
29.009497869018190385759 555.36423990648336257 29.009497869018190385759 120.03245835844521139
30.009497869018190385759 558.48289828588792716 30.009497869018190385759 117.64369705131022670
31.009497869018190385759 561.40182335077224707 31.009497869018190385759 115.19009274703388712
32.009497869018190385759 564.14643046095807222 32.009497869018190385759 112.72649624415289793
33.009497869018190385759 566.73710978845815589 33.009497869018190385759 110.30418468481197181
34.009497869018190385759 569.18406327080788287 34.009497869018190385759 107.86173602576330666
35.009497869018190385759 571.49377367706779296 35.009497869018190385759 105.32130089271369400
36.009497869018190385759 573.67499752531625745 36.009497869018190385759 102.95749059782713175
37.009497869018190385759 575.73280509653670833 37.009497869018190385759 100.60996208571538091
38.009497869018190385759 577.67189479637022487 38.009497869018190385759 98.24193818898073971
39.009497869018190385759 579.49658109610527390 39.009497869018190385759 95.82588638207155896
40.009497869018190385759 581.21737783416847378 40.009497869018190385759 93.31440352093757440
41.009497869018190385759 582.84094932831806091 41.009497869018190385759 90.99326008981155667
42.009497869018190385759 584.37339124783488842 42.009497869018190385759 88.61246619422223603
43.009497869018190385759 585.82065633374281788 43.009497869018190385759 86.31037857345742736
44.009497869018190385759 587.18801285890162944 44.009497869018190385759 83.99045612165636499
46.009497869018190385759 589.70172611554210107 46.009497869018190385759 79.51537734764063714
48.009497869018190385759 591.94847796211524837 48.009497869018190385759 75.23772979961735530
50.009497869018218807469 593.95713984260555662 50.009497869018218807469 71.09650532868135997
52.009497869018190385759 595.75535832614139053 52.009497869018190385759 67.11294433211108412
54.009497869018190385759 597.36581041515125889 54.009497869018190385759 63.31924495178832046
56.009497869018190385759 598.80948076416348158 56.009497869018190385759 59.68276703927291038
58.009497869018190385759 600.10406646671810904 58.009497869018190385759 56.21908566184556122
60.009497869018190385759 601.26630487164220540 60.009497869018190385759 52.92384129232902268
62.009497869018190385759 602.30962521643994023 62.009497869018190385759 49.78441654207315281
64.009497869018190385759 603.24780571154417430 64.009497869018190385759 46.80013900737547061
66.009497869018218807469 604.09114113727980566 66.009497869018218807469 43.99836441459576264
68.009497869018190385759 604.84979999074903390 68.009497869018190385759 41.34978380955665500
70.009497869018190385759 605.53273128208354592 70.009497869018190385759 38.80941539100939508
72.009497869018190385759 606.14726559611438006 72.009497869018190385759 36.44533109702958740
74.009497869018218807469 606.70098078111834639 74.009497869018218807469 34.19262750071143842
76.009497869018190385759 607.20005985099896861 76.009497869018190385759 32.06235647142920442
78.009497869018190385759 607.64996221030617107 78.009497869018190385759 30.04417456146013521
80.009497869018218807469 608.05576441183472980 80.009497869018218807469 28.14993700722623515
82.009497869018190385759 608.42170998675010196 82.009497869018190385759 26.35044429455083304
84.009497869018190385759 608.75160599228661340 84.009497869018190385759 24.59557250987571564
86.009497869018218807469 609.04932449751879631 86.009497869018218807469 22.98866440246293408
88.009497869018190385759 609.31800300984548358 88.009497869018190385759 21.42244919794380920
91.009497869018190385759 609.67264699544023188 91.009497869018190385759 19.25554240034840703
94.009497869018190385759 609.97707223181600966 94.009497869018190385759 17.24003794769033249
97.009497869018190385759 610.23774889341780181 97.009497869018190385759 15.41896993997218068
99.504748934509137825444 610.42584235321589858 99.504748934509137825444 13.10442308245863963
nan nan nan nan

