Time Pressure difference Time.1 Pressure.1 difference.1
(hr) (psi) (hr) (psi)
0.000200000000006639311 0.01322852251438006 0.000200000000006639311 0.01060336029356125
0.000399999999999067768 0.02473678597686169 0.000399999999999067768 0.02260256477303189
0.000600000000019917934 0.03532427917013443 0.000600000000019917934 0.03102850063769835
0.000799999999998135536 0.04525405611458542 0.000799999999998135536 0.03884829997328360
0.001007140329448930061 0.05499741340173815 0.001007140329448930061 0.04642283402847106
0.001267914553963578328 0.06663233961294530 0.001267914553963578328 0.05530890406520618
0.001596209851982166583 0.08046777274710852 0.001596209851982166583 0.06561613265390122
0.002009509145210586212 0.09684918939822833 0.002009509145210586212 0.07750750249993196
0.002529822128153114136 0.11616055949592081 0.002529822128153114136 0.09115466225050520
0.003184857364431081805 0.13882637170535514 0.003184857364431081805 0.10673864933978523
0.004009497869020606231 0.16531391657348646 0.004009497869020606231 0.12445153080524347
0.005047658755856332391 0.19613606124683131 0.005047658755856332391 0.14449907971566894
0.006354625877790454069 0.23185475627687577 0.006354625877790454069 0.16710437592655716
0.007999999999995566213 0.27308545606120410 0.007999999999995566213 0.19251205686454292
0.010071403294347192059 0.32050256562329632 0.010071403294347192059 0.22099336837200337
0.012679145539706837553 0.37484616231313900 0.012679145539706837553 0.25285339455285638
0.015962098519764822413 0.43693073712394881 0.015962098519764822413 0.28844223283839132
0.020095091452077440408 0.50765701313990108 0.020095091452077440408 0.32816787693122712
0.025298221281346400247 0.58802654932510323 0.025298221281346400247 0.37249904760688607
0.031848573644282396344 0.67915476412110187 0.031848573644282396344 0.42193835889825693
0.040094978690177640601 0.78227304819618793 0.040094978690177640601 0.47695181262360525
0.050476587558421215363 0.89870914538220803 0.050476587558421215363 0.53786246651569969
0.063546258777947173257 1.02984008109310365 0.063546258777947173257 0.60475006001848519
0.079999999999998294697 1.17702605250788062 0.079999999999998294697 0.67740763013468441
0.100714032943528764008 1.34154304323327977 0.100714032943528764008 0.75536420292924633
0.126791455396883634421 1.52452673592260135 0.126791455396883634421 0.83800873609191062
0.159620985197506115583 1.72696161120034342 0.159620985197506115583 0.92479782568013380
0.200950914520774404082 1.94971965097928557 0.200950914520774404082 1.01528379986377426
0.252982212813464002465 2.19356132082525423 0.252982212813464002465 1.10932621307997792
0.318485736442795541734 2.45926993601911459 0.318485736442795541734 1.20738946438955241
0.400949786901833249431 2.74778709882139882 0.400949786901833249431 1.30985561668979722
0.504765875584169521062 3.06002857382538096 0.504765875584169521062 1.41783799420134038
0.635462587779429100010 3.39738814184812954 0.635462587779429100010 1.53261247121071520
0.800000000000011368684 3.76128772671907186 0.800000000000011368684 1.65596093665129662
1.007140329435344483500 4.15382779091825682 1.007140329435344483500 1.78972656342498393
1.267914553968893187630 4.57712547823853111 1.267914553968893187630 1.93519746684784288
1.596209851975103788391 5.03366602140964758 1.596209851975103788391 2.09334721153572900
2.009509145207672986544 5.52573823764337924 2.009509145207672986544 2.26308243037399937
2.529822128134725289783 6.05497266201764628 2.529822128134725289783 2.44121075985649716
3.184857364427998049905 6.62175861475751582 3.184857364427998049905 2.62226003326806056
4.009497869018190385759 7.22470715444943856 4.009497869018190385759 2.79900278791792623
5.009497869018204596614 7.83888182271560385 5.009497869018204596614 2.95824471235639885
6.009497869018190385759 8.35989918310098012 6.009497869018190385759 3.07520367485724089
7.009497869018190385759 8.81107237520419240 7.009497869018190385759 3.16107260430717396
8.009497869018204596614 9.20744725124554719 8.009497869018204596614 3.22304273208450320
9.009497869018190385759 9.55959571664874375 9.009497869018190385759 3.26591836592230012
10.009497869018190385759 9.87538423461172954 10.009497869018190385759 3.29373013574469464
11.009497869018204596614 10.16059914152716814 11.009497869018204596614 3.31342256754999465
12.009497869018190385759 10.41978879156167359 12.009497869018190385759 3.32372891392437531
13.009497869018190385759 10.65653974128520254 13.009497869018190385759 3.32645531264535732
14.009497869018204596614 10.87375439213654538 14.009497869018204596614 3.32293811745968481
15.009497869018190385759 11.07382110135705133 15.009497869018190385759 3.31334252994273681
16.009497869018190385759 11.25873758185019824 16.009497869018190385759 3.29802273523436495
17.009497869018190385759 11.42998656301374361 17.009497869018190385759 3.27468036413535346
18.009497869018204596614 11.58892412052771270 18.009497869018204596614 3.24767011700647146
19.009497869018190385759 11.73667597626550396 19.009497869018190385759 3.21218202094199734
20.009497869018190385759 11.87416453461310084 20.009497869018190385759 3.17725757035957601
21.009497869018204596614 12.00220712018300162 21.009497869018204596614 3.13997181276975823
22.009497869018190385759 12.12170569967235068 22.009497869018190385759 3.10088969636612966
23.009497869018190385759 12.23358893780687495 23.009497869018190385759 3.05904904944946887
24.009497869018204596614 12.33848068006353671 24.009497869018204596614 3.01708290136672819
25.009497869018190385759 12.43694535445032301 25.009497869018190385759 2.97284652034513552
26.009497869018190385759 12.52949437448410563 26.009497869018190385759 2.92197743851518910
27.009497869018204596614 12.61654571334181441 27.009497869018204596614 2.86997702167023983
28.009497869018190385759 12.69821987881763192 28.009497869018190385759 2.81586839019528368
29.009497869018190385759 12.77472222545179470 29.009497869018190385759 2.76103717773663337
30.009497869018190385759 12.84645891940904328 30.009497869018190385759 2.70608988374684500
31.009497869018190385759 12.91360126351655424 31.009497869018190385759 2.64965104381797101
32.009497869018190385759 12.97673387258862476 32.009497869018190385759 2.59298235912700381
33.009497869018190385759 13.03632576995242864 33.009497869018190385759 2.53726332810100130
34.009497869018190385759 13.09261162487330665 34.009497869018190385759 2.48108109502361129
35.009497869018190385759 13.14574055673642761 35.009497869018190385759 2.42264493578881401
36.009497869018190385759 13.19591398665981608 36.009497869018190385759 2.36827157549481315
37.009497869018190385759 13.24324854338280488 37.009497869018190385759 2.31427273562783586
38.009497869018190385759 13.28785230161141939 38.009497869018190385759 2.25980245228890331
39.009497869018190385759 13.32982450463195967 39.009497869018190385759 2.20422741072561656
40.009497869018190385759 13.36940699618547335 40.009497869018190385759 2.14645722384723259
41.009497869018190385759 13.40675307171676245 41.009497869018190385759 2.09306530472932151
42.009497869018190385759 13.44200294637876780 42.009497869018190385759 2.03830128049663761
43.009497869018190385759 13.47529354762846587 43.009497869018190385759 1.98534769115701093
44.009497869018190385759 13.50674605849773968 44.009497869018190385759 1.93198385751994062
46.009497869018190385759 13.56456754987324409 46.009497869018190385759 1.82904621017575297
48.009497869018190385759 13.61624828242153740 48.009497869018190385759 1.73064995907110153
50.009497869018218807469 13.66245236926090278 50.009497869018218807469 1.63539176906167771
52.009497869018190385759 13.70381574842213723 52.009497869018190385759 1.54376022071441943
54.009497869018190385759 13.74086004586909660 54.009497869018190385759 1.45649594925421066
56.009497869018190385759 13.77406795946623141 56.009497869018190385759 1.37284815223509127
58.009497869018190385759 13.80384656521506592 58.009497869018190385759 1.29317509391654428
60.009497869018190385759 13.83058086266489362 60.009497869018190385759 1.21737649461773789
62.009497869018190385759 13.85457975679462272 62.009497869018190385759 1.14516212384914029
64.009497869018190385759 13.87616017980549721 64.009497869018190385759 1.07651651469749843
66.009497869018218807469 13.89555893657181151 66.009497869018218807469 1.01206891510571362
68.009497869018190385759 13.91300992714798213 68.009497869018190385759 0.95114514816171480
70.009497869018190385759 13.92871900043533628 70.009497869018190385759 0.89271052352200797
72.009497869018190385759 13.94285477763459191 72.009497869018190385759 0.83833086058542639
74.009497869018218807469 13.95559156760441688 74.009497869018218807469 0.78651322338198226
76.009497869018190385759 13.96707159463556991 76.009497869018190385759 0.73751183166725753
78.009497869018190385759 13.97742043825159541 78.009497869018190385759 0.69108876109896200
80.009497869018218807469 13.98675487145866470 80.009497869018218807469 0.64751671081997397
82.009497869018190385759 13.99517250574849037 82.009497869018190385759 0.60612402130322751
84.009497869018190385759 14.00276091265550171 84.009497869018190385759 0.56575772117147527
86.009497869018218807469 14.00960915914389382 86.009497869018218807469 0.52879494388231929
88.009497869018190385759 14.01578941548070745 88.009497869018190385759 0.49276820188974862
91.009497869018190385759 14.02394708585153005 91.009497869018190385759 0.44292409879736044
94.009497869018190385759 14.03094960339528363 94.009497869018190385759 0.39656261623016503
97.009497869018190385759 14.03694579779048190 97.009497869018190385759 0.35467364268701140
99.504748934509137825444 14.04127240279794187 99.504748934509137825444 0.30143346073452076
nan nan nan nan

