Time Pressure difference Time.1 Pressure.1 difference.1
(hr) (psi) (hr) (psi)
0.000200000000006639311 0.19285793349911981 0.000200000000006639311 0.15458583164823508
0.000399999999999067768 0.36063630082056253 0.000399999999999067768 0.32952160221735965
0.000600000000019917934 0.51499080684880183 0.000600000000019917934 0.45236287771802330
0.000799999999998135536 0.65975650230211369 0.000799999999998135536 0.56636732066313455
0.001007140329448930061 0.80180439538323511 0.001007140329448930061 0.67679605399402543
0.001267914553963578328 0.97142937225188697 0.001267914553963578328 0.80634560137169009
0.001596209851982166583 1.17313542373416113 0.001596209851982166583 0.95661414448055981
0.002009509145210586212 1.41195923491101305 0.002009509145210586212 1.12997779960427125
0.002529822128153114136 1.69349868317737173 0.002529822128153114136 1.32893902333631253
0.003184857364431081805 2.02394236644123016 0.003184857364431081805 1.55613715090107951
0.004009497869020606231 2.41010288899240788 0.004009497869020606231 1.81437231752907580
0.005047658755856332391 2.85945731396696212 0.005047658755856332391 2.10664447796001530
0.006354625877790454069 3.38019828887866280 0.006354625877790454069 2.43620590166612283
0.007999999999995566213 3.98129849099755440 0.007999999999995566213 2.80662314481465236
0.010071403294347192059 4.67259003566595155 0.010071403294347192059 3.22185068626552251
0.012679145539706837553 5.46486247161786931 0.012679145539706837553 3.68633633111269532
0.015962098519764822413 6.36999022017546412 0.015962098519764822413 4.20518413138075697
0.020095091452077440408 7.40110487577645237 0.020095091452077440408 4.78434220578683700
0.025298221281346400247 8.57280811384492658 0.025298221281346400247 5.43064400984775997
0.031848573644282396344 9.90136156113396027 0.031848573644282396344 6.15141712709564104
0.040094978690177640601 11.40471759738652935 0.040094978690177640601 6.95345537351256127
0.050476587558421215363 13.10223333004587509 0.050476587558421215363 7.84146859078151692
0.063546258777947173257 15.01398434014682692 0.063546258777947173257 8.81661929605896866
0.079999999999998294697 17.15980087077278782 0.079999999999998294697 9.87589018670040097
0.100714032943528764008 19.55828541976939050 0.100714032943528764008 11.01241495849480323
0.126791455396883634421 22.22599504476634635 0.126791455396883634421 12.21728525776101293
0.159620985197506115583 25.17728243697342805 0.159620985197506115583 13.48257882702089994
0.200950914520774404082 28.42486017480327121 0.200950914520774404082 14.80176908222449761
0.252982212813464002465 31.97981504571554723 0.252982212813464002465 16.17280847490283335
0.318485736442795541734 35.85356696196288340 0.318485736442795541734 17.60246745452136707
0.400949786901833249431 40.05984349334354988 0.400949786901833249431 19.09631609595125568
0.504765875584169521062 44.61199552366475984 0.504765875584169521062 20.67058549440901061
0.635462587779429100010 49.53034291010168033 0.635462587779429100010 22.34387655396674077
0.800000000000011368684 54.83561580532541058 0.800000000000011368684 24.14216733960047989
1.007140329435344483500 60.55843674128194465 1.007140329435344483500 26.09232937203792702
1.267914553968893187630 66.72967144589858890 1.267914553968893187630 28.21314201667644639
1.596209851975103788391 73.38555199634063797 1.596209851975103788391 30.51879882081036399
2.009509145207672986544 80.55944693827453307 2.009509145207672986544 32.99335964282094125
2.529822128134725289783 88.27512775678357571 2.529822128134725289783 35.59028318317104578
3.184857364427998049905 96.53827033093851639 3.184857364427998049905 38.22979101132909818
4.009497869018190385759 105.32862535697339013 4.009497869018190385759 40.80651432911924559
5.009497869018204596614 114.28264552064328541 5.009497869018204596614 43.12809396435381615
6.009497869018190385759 121.87853019573535107 6.009497869018190385759 44.83323252291872052
7.009497869018190385759 128.45616041745057601 7.009497869018190385759 46.08511112595196124
8.009497869018204596614 134.23488887342190878 8.009497869018204596614 46.98857035723196418
9.009497869018190385759 139.36884281640536187 9.009497869018190385759 47.61365196634090324
10.009497869018190385759 143.97270699933943661 10.009497869018190385759 48.01911829480422966
11.009497869018204596614 148.13084011594870049 11.009497869018204596614 48.30621322164991938
12.009497869018190385759 151.90955238224123036 12.009497869018190385759 48.45646890300272958
13.009497869018190385759 155.36113201768426961 13.009497869018190385759 48.49621692646126547
14.009497869018204596614 158.52789298009597019 14.009497869018204596614 48.44493992296487761
15.009497869018190385759 161.44465500399493862 15.009497869018190385759 48.30504635758621390
16.009497869018190385759 164.14054264065816824 16.009497869018190385759 48.08169987683784541
17.009497869018190385759 166.63717252393718127 17.009497869018190385759 47.74139267713120915
18.009497869018204596614 168.95431480979874550 18.009497869018204596614 47.34761170583119139
19.009497869018190385759 171.10838133818654683 19.009497869018190385759 46.83023262110175011
20.009497869018190385759 173.11281979409628207 20.009497869018190385759 46.32107089418961010
21.009497869018204596614 174.97954591003639280 21.009497869018204596614 45.77748379669595380
22.009497869018190385759 176.72170941101268227 22.009497869018190385759 45.20770767860093997
23.009497869018190385759 178.35284925118443766 23.009497869018190385759 44.59771508934225182
24.009497869018204596614 179.88206044092632396 24.009497869018204596614 43.98589282518861410
25.009497869018190385759 181.31757174645997566 25.009497869018190385759 43.34097295450540344
26.009497869018190385759 182.66683903853143534 26.009497869018190385759 42.59935528782670389
27.009497869018204596614 183.93595592608858169 27.009497869018204596614 41.84124394750823228
28.009497869018190385759 185.12667928592023259 28.009497869018190385759 41.05239705705755426
29.009497869018190385759 186.24200297106037283 29.009497869018190385759 40.25301569647617583
30.009497869018190385759 187.28784845664765157 30.009497869018190385759 39.45194198936190588
31.009497869018190385759 188.26671315758341052 31.009497869018190385759 38.62912311250410369
32.009497869018190385759 189.18712014247626030 32.009497869018190385759 37.80295334095684723
33.009497869018190385759 190.05590727772749915 33.009497869018190385759 36.99062852020934145
34.009497869018190385759 190.87649579420556734 34.009497869018190385759 36.17155070113370385
35.009497869018190385759 191.65105969557845356 35.009497869018190385759 35.31961301123691754
36.009497869018190385759 192.38253548972471663 36.009497869018190385759 34.52690665326648656
37.009497869018190385759 193.07262350089666825 37.009497869018190385759 33.73966040889002471
38.009497869018190385759 193.72289934454545346 38.009497869018190385759 32.94554101494874487
39.009497869018190385759 194.33480988331857020 39.009497869018190385759 32.13531540899978012
40.009497869018190385759 194.91188094438820144 40.009497869018190385759 31.29308689503596597
41.009497869018190385759 195.45634741397594780 41.009497869018190385759 30.51468891631695257
42.009497869018190385759 195.97025348141676204 42.009497869018190385759 29.71628708934571250
43.009497869018190385759 196.45559540489921346 43.009497869018190385759 28.94427949739431938
44.009497869018190385759 196.91413990546706714 44.009497869018190385759 28.16629097542229232
46.009497869018190385759 197.75711638499416267 46.009497869018190385759 26.66556843256229570
48.009497869018190385759 198.51056706477714897 48.009497869018190385759 25.23105466645764139
50.009497869018218807469 199.18417401501420727 50.009497869018218807469 23.84229052789919479
52.009497869018190385759 199.78720854278589059 52.009497869018190385759 22.50639900725759190
54.009497869018190385759 200.32727540556524559 54.009497869018190385759 21.23417778649559651
56.009497869018190385759 200.81141183011294515 56.009497869018190385759 20.01468095626948696
58.009497869018190385759 201.24555255603016235 58.009497869018190385759 18.85313163236225265
60.009497869018190385759 201.63531047148293851 60.009497869018190385759 17.74806784258491632
62.009497869018190385759 201.98518908590054366 62.009497869018190385759 16.69525833190588671
64.009497869018190385759 202.29980893716435730 64.009497869018190385759 15.69447760901089950
66.009497869018218807469 202.58262239107327218 66.009497869018218807469 14.75489944654119334
68.009497869018190385759 202.83703946421005071 68.009497869018190385759 13.86669505477868469
70.009497869018190385759 203.06606121687303812 70.009497869018190385759 13.01477973766295904
72.009497869018190385759 203.27214596867273144 72.009497869018190385759 12.22198149379805976
74.009497869018218807469 203.45783495928543516 74.009497869018218807469 11.46653488825310951
76.009497869018190385759 203.62520166916070252 76.009497869018190385759 10.75214617746475554
78.009497869018190385759 203.77607691556272584 78.009497869018190385759 10.07534667496907765
80.009497869018218807469 203.91216312600263905 80.009497869018218807469 9.44011204721751440
82.009497869018190385759 204.03488337328059288 82.009497869018190385759 8.83665020531547363
84.009497869018190385759 204.14551435818810887 84.009497869018190385759 8.24815204023676962
86.009497869018218807469 204.24535458330836946 86.009497869018218807469 7.70927365554749766
88.009497869018190385759 204.33545621516609003 88.009497869018190385759 7.18404168018212452
91.009497869018190385759 204.45438646215123413 91.009497869018190385759 6.45736712457204476
94.009497869018190385759 204.55647579686808513 94.009497869018190385759 5.78146551030293221
97.009497869018190385759 204.64389399936649738 97.009497869018190385759 5.17076836970011389
99.504748934509137825444 204.70697134605424594 99.504748934509137825444 4.39458255912959306
nan nan nan nan

