Time Pressure difference Time.1 Pressure.1 difference.1
(hr) (psi) (hr) (psi)
0.000200000000006639311 0.14760246173939856 0.000200000000006639311 0.11831117801236765
0.000399999999999067768 0.27601045405761465 0.000399999999999067768 0.25219703852014530
0.000600000000019917934 0.39414458863518415 0.000600000000019917934 0.34621274395747637
0.000799999999998135536 0.50493999454168992 0.000799999999998135536 0.43346524180716434
0.001007140329448930061 0.61365534953518364 0.001007140329448930061 0.51798109547557170
0.001267914553963578328 0.74347663147075815 0.001267914553963578328 0.61713092956966897
0.001596209851982166583 0.89785093802036875 0.001596209851982166583 0.73213790119089772
0.002009509145210586212 1.08063306065391607 0.002009509145210586212 0.86482055420976711
0.002529822128153114136 1.29610729542816894 0.002529822128153114136 1.01709412616353156
0.003184857364431081805 1.54901004218606797 0.003184857364431081805 1.19097861368602453
0.004009497869020606231 1.84455527966205945 0.004009497869020606231 1.38861708056376898
0.005047658755856332391 2.18846552549096041 0.005047658755856332391 1.61230552103799019
0.006354625877790454069 2.58701096477356129 0.006354625877790454069 1.86453303665421699
0.007999999999995566213 3.04705877289343530 0.007999999999995566213 2.14802926606753131
0.010071403294347192059 3.57613389011256944 0.010071403294347192059 2.46582074183498490
0.012679145539706837553 4.18249402159923545 0.012679145539706837553 2.82131156027397623
0.015962098519764822413 4.87522717211984968 0.015962098519764822413 3.21840807167047149
0.020095091452077440408 5.66438351503468596 0.020095091452077440408 3.66166262681158639
0.025298221281346400247 6.56113833983799388 0.025298221281346400247 4.15630516277157103
0.031848573644282396344 7.57793736808808394 0.031848573644282396344 4.70794379402265672
0.040094978690177640601 8.72852032724167692 0.040094978690177640601 5.32177811980022764
0.050476587558421215363 10.02770204321200609 0.050476587558421215363 6.00141278428043989
0.063546258777947173257 11.49084722061778940 0.063546258777947173257 6.74773751178520342
0.079999999999998294697 13.13313279640372144 0.079999999999998294697 7.55844303097647963
0.100714032943528764008 14.96879606133975216 0.100714032943528764008 8.42827426426317139
0.126791455396883634421 17.01050884292586929 0.126791455396883634421 9.35041326586763510
0.159620985197506115583 19.26925587234067194 0.159620985197506115583 10.31879679179938769
0.200950914520774404082 21.75476663197940042 0.200950914520774404082 11.32842976690105985
0.252982212813464002465 24.47552631657652000 0.252982212813464002465 12.37774511436606950
0.318485736442795541734 27.44027507558169887 0.318485736442795541734 13.47192455003079381
0.400949786901833249431 30.65951920790192631 0.400949786901833249431 14.61523109148615696
0.504765875584169521062 34.14347671847266952 0.504765875584169521062 15.82008709319390150
0.635462587779429100010 37.90769926693702985 0.635462587779429100010 17.10072862614061151
0.800000000000011368684 41.96805252970753486 0.800000000000011368684 18.47703781947762280
1.007140329435344483500 46.34797324603528068 1.007140329435344483500 19.96958060242613797
1.267914553968893187630 51.07108428350361606 1.267914553968893187630 21.59272963009172130
1.596209851975103788391 56.16511560730764785 1.596209851975103788391 23.35734783397760594
2.009509145207672986544 61.65560559896823634 2.009509145207672986544 25.25123553890989214
2.529822128134725289783 67.56074759724951662 2.529822128134725289783 27.23877268892512760
3.184857364427998049905 73.88488559624174457 3.184857364427998049905 29.25890142383309822
4.009497869018190385759 80.61252193385689679 4.009497869018190385759 31.23097847571581198
5.009497869018204596614 87.46541823240568192 5.009497869018204596614 33.00778310629245738
6.009497869018190385759 93.27887509565304924 6.009497869018190385759 34.31279889840710950
7.009497869018190385759 98.31301808122573505 7.009497869018190385759 35.27091537437478053
8.009497869018204596614 102.73572722442399652 8.009497869018204596614 35.96237153694288224
9.009497869018190385759 106.66496273313335053 9.009497869018190385759 36.44077334608039820
10.009497869018190385759 110.18849777566771309 10.009497869018190385759 36.75109414620396109
11.009497869018204596614 113.37089568440840992 11.009497869018204596614 36.97082022739993334
12.009497869018190385759 116.26290651637235385 12.009497869018190385759 37.08581735536670720
13.009497869018190385759 118.90454869223491130 13.009497869018190385759 37.11623822530609118
14.009497869018204596614 121.32820690173409162 14.009497869018204596614 37.07699373165543477
15.009497869018190385759 123.56053018356288931 15.009497869018190385759 36.96992717620316427
16.009497869018190385759 125.62380880801272554 16.009497869018190385759 36.79899051945712785
17.009497869018190385759 127.53458691362703803 17.009497869018190385759 36.53853879982604980
18.009497869018204596614 129.30799545009867302 18.009497869018204596614 36.23716130554588943
19.009497869018190385759 130.95659510359402589 19.009497869018190385759 35.84118886524754544
20.009497869018190385759 132.49067796515669215 20.009497869018190385759 35.45150552190684579
21.009497869018204596614 133.91936365677875642 21.009497869018204596614 35.03547496353625235
22.009497869018190385759 135.25271622792308790 22.009497869018190385759 34.59940082261155680
23.009497869018190385759 136.50109762184513329 23.009497869018190385759 34.13254728859406839
24.009497869018204596614 137.67146864070895163 24.009497869018204596614 33.66429342577612260
25.009497869018190385759 138.77012711281412294 25.009497869018190385759 33.17070854279835856
26.009497869018190385759 139.80277933634897636 26.009497869018190385759 32.60311668238000493
27.009497869018204596614 140.77408901202448988 27.009497869018204596614 32.02290150495214505
28.009497869018190385759 141.68540075312304793 28.009497869018190385759 31.41916309060000501
29.009497869018190385759 142.53900588398843752 29.009497869018190385759 30.80736219369295981
30.009497869018190385759 143.33943636393249221 30.009497869018190385759 30.19426607128058748
31.009497869018190385759 144.08860357186890155 31.009497869018190385759 29.56452743628472746
32.009497869018190385759 144.79303057835730328 32.009497869018190385759 28.93222421762762053
33.009497869018190385759 145.45795069631131469 33.009497869018190385759 28.31051713460065145
34.009497869018190385759 146.08598234069162913 34.009497869018190385759 27.68364169184239998
35.009497869018190385759 146.67878936990118177 35.009497869018190385759 27.03161717827518729
36.009497869018190385759 147.23861921957271193 36.009497869018190385759 26.42492494762633370
37.009497869018190385759 147.76677322090287703 37.009497869018190385759 25.82241157647900920
38.009497869018190385759 148.26445726008532233 38.009497869018190385759 25.21463788869723288
39.009497869018190385759 148.73277868326186990 39.009497869018190385759 24.59453742493846207
40.009497869018190385759 149.17443595743790752 40.009497869018190385759 23.94994376082174981
41.009497869018190385759 149.59113953705019640 41.009497869018190385759 23.35420234750611357
42.009497869018190385759 149.98445392801573917 42.009497869018190385759 22.74315112975195419
43.009497869018190385759 150.35590695248603765 43.009497869018190385759 22.15230055396243714
44.009497869018190385759 150.70685075797479158 44.009497869018190385759 21.55687251548565087
46.009497869018190385759 151.35201687226987133 46.009497869018190385759 20.40830508196103210
48.009497869018190385759 151.92866504596662480 48.009497869018190385759 19.31041006963545215
50.009497869018218807469 152.44420538333216086 50.009497869018218807469 18.24752921268819250
52.009497869018190385759 152.90573361397329677 52.009497869018190385759 17.22511404165562965
54.009497869018190385759 153.31906998548674892 54.009497869018190385759 16.25142848641540283
56.009497869018190385759 153.68960038983371419 56.009497869018190385759 15.31809517230733242
58.009497869018190385759 154.02186693818913454 58.009497869018190385759 14.42911157422670421
60.009497869018190385759 154.32016541499777418 60.009497869018190385759 13.58335878205054925
62.009497869018190385759 154.58794254949791025 62.009497869018190385759 12.77759843452724908
64.009497869018190385759 154.82873463782976842 64.009497869018190385759 12.01165795346682508
66.009497869018218807469 155.04518392385389802 66.009497869018218807469 11.29255842117954245
68.009497869018190385759 155.23990023975642316 68.009497869018190385759 10.61277744264650025
70.009497869018190385759 155.41518042591005155 70.009497869018190385759 9.96077005192977261
72.009497869018190385759 155.57290593992283334 72.009497869018190385759 9.35400749705844170
74.009497869018218807469 155.71502170169139845 74.009497869018218807469 8.77583175563053786
76.009497869018190385759 155.84311463488108984 76.009497869018190385759 8.22907938491887414
78.009497869018190385759 155.95858594259672714 78.009497869018190385759 7.71109565015683973
80.009497869018218807469 156.06273856574932779 80.009497869018218807469 7.22492329967549907
82.009497869018190385759 156.15666164308839825 82.009497869018190385759 6.76306802717285382
84.009497869018190385759 156.24133228857718336 84.009497869018190385759 6.31266509938698750
86.009497869018218807469 156.31774430202659687 86.009497869018218807469 5.90023832121324610
88.009497869018190385759 156.38670295167946733 88.009497869018190385759 5.49825572634877435
91.009497869018190385759 156.47772537897495226 91.009497869018190385759 4.94210047079160120
94.009497869018190385759 156.55585873262106134 94.009497869018190385759 4.42480392846289394
97.009497869018190385759 156.62276363850435246 97.009497869018190385759 3.95741117103402162
99.504748934509137825444 156.67103944174547792 99.504748934509137825444 3.36336282503781092
nan nan nan nan

