Time Pressure difference Time.1 Pressure.1 difference.1
(hr) (psi) (hr) (psi)
0.000200000000006639311 0.59458727512003007 0.000200000000006639311 0.47659314161585836
0.000399999999999067768 1.11185343285473071 0.000399999999999067768 1.01592580611417027
0.000600000000019917934 1.58773339006814740 0.000600000000019917934 1.39464944971549443
0.000799999999998135536 2.03405073272926007 0.000799999999998135536 1.74612885143074692
0.001007140329448930061 2.47198900237286212 0.001007140329448930061 2.08658422422706735
0.001267914553963578328 2.99494831733975220 0.001267914553963578328 2.48598968798347775
0.001596209851982166583 3.61681462768582485 0.001596209851982166583 2.94927248875955961
0.002009509145210586212 4.35311619716247389 0.002009509145210586212 3.48375827026009954
0.002529822128153114136 5.22111146365875634 0.002529822128153114136 4.09716218747007588
0.003184857364431081805 6.23988007559859437 0.003184857364431081805 4.79762139664087339
0.004009497869020606231 7.43042551335565449 0.004009497869020606231 5.59376880566725809
0.005047658755856332391 8.81579980551547138 0.005047658755856332391 6.49485337248322470
0.006354625877790454069 10.42126115055009983 0.006354625877790454069 7.51090194954104451
0.007999999999995566213 12.27447260401411988 0.007999999999995566213 8.65291034538524606
0.010071403294347192059 14.40574689696289745 0.010071403294347192059 9.93307034682583456
0.012679145539706837553 16.84834855870635550 0.012679145539706837553 11.36509468148101654
0.015962098519764822413 19.63888681599222608 0.015962098519764822413 12.96471930757822122
0.020095091452077440408 22.81784680113029040 0.020095091452077440408 14.75028246838252244
0.025298221281346400247 26.43024595387569065 0.025298221281346400247 16.74285192927793275
0.031848573644282396344 30.52621939786426353 0.031848573644282396344 18.96501886837428685
0.040094978690177640601 35.16111490313392096 0.040094978690177640601 21.43772884108204835
0.050476587558421215363 40.39461106086345410 0.050476587558421215363 24.17550244233724399
0.063546258777947173257 46.28860153965844404 0.063546258777947173257 27.18192375030454500
0.079999999999998294697 52.90422362324895289 0.079999999999998294697 30.44769032289581645
0.100714032943528764008 60.29882941690636500 0.100714032943528764008 33.95163312113560039
0.126791455396883634421 68.52346486725798513 0.126791455396883634421 37.66628740118377294
0.159620985197506115583 77.62237978763648982 0.159620985197506115583 41.56722858583338365
0.200950914520774404082 87.63476747033210756 0.200950914520774404082 45.63433500440332580
0.252982212813464002465 98.59480884130353218 0.252982212813464002465 49.86129399843690635
0.318485736442795541734 110.53771186106966695 0.318485736442795541734 54.26897908361461020
0.400949786901833249431 123.50579907334076779 0.400949786901833249431 58.87456298174141267
0.504765875584169521062 137.54023168667765731 0.504765875584169521062 63.72808668673391708
0.635462587779429100010 152.70365648096333189 0.635462587779429100010 68.88689739020794889
0.800000000000011368684 169.05998519042563544 0.800000000000011368684 74.43108631053722490
1.007140329435344483500 186.70362807601003396 1.007140329435344483500 80.44349921920716895
1.267914553968893187630 205.72974517977399955 1.267914553968893187630 86.98203350989777505
1.596209851975103788391 226.25004117283361893 1.596209851975103788391 94.09044835007959762
2.009509145207672986544 248.36739236565503575 2.009509145207672986544 101.71959976523135083
2.529822128134725289783 272.15508701910891887 2.529822128134725289783 109.72599941670782187
3.184857364427998049905 297.63062405278520828 3.184857364427998049905 117.86368781110125781
4.009497869018190385759 324.73157420525370753 4.009497869018190385759 125.80780952010049134
5.009497869018204596614 352.33710929469083339 5.009497869018204596614 132.96531496591393307
6.009497869018190385759 375.75546854569671495 6.009497869018190385759 138.22231254358334240
7.009497869018190385759 396.03451623286207450 7.009497869018190385759 142.08189495149088089
8.009497869018204596614 413.85052381914192665 8.009497869018204596614 144.86728911579820078
9.009497869018190385759 429.67867063252771231 9.009497869018190385759 146.79443602619178932
10.009497869018190385759 443.87253349254825707 10.009497869018190385759 148.04450189084047906
11.009497869018204596614 456.69219299285271063 11.009497869018204596614 148.92962487829973384
12.009497869018190385759 468.34208568387731475 12.009497869018190385759 149.39286802586400427
13.009497869018190385759 478.98341784513496577 13.009497869018190385759 149.51541247363871889
14.009497869018204596614 488.74664478340054075 14.009497869018204596614 149.35732380581950451
15.009497869018190385759 497.73911687152218519 15.009497869018190385759 148.92602739847876592
16.009497869018190385759 506.05062604737207721 16.009497869018190385759 148.23744294158672119
17.009497869018190385759 513.74781709545982267 17.009497869018190385759 147.18826478797851109
18.009497869018204596614 520.89164204898247590 18.009497869018204596614 145.97422525913299296
19.009497869018190385759 527.53269914372310723 19.009497869018190385759 144.37912873076135156
20.009497869018190385759 533.71244802945193442 20.009497869018190385759 142.80936658353041935
21.009497869018204596614 539.46762529664647445 21.009497869018204596614 141.13346990028281880
22.009497869018190385759 544.83877197474669174 22.009497869018190385759 139.37683161561446354
23.009497869018190385759 549.86762909931951526 23.009497869018190385759 137.49620464367612271
24.009497869018204596614 554.58223688285579556 24.009497869018204596614 135.60993672458872084
25.009497869018190385759 559.00796487897764564 25.009497869018190385759 133.62162780919715033
26.009497869018190385759 563.16779977944349866 26.009497869018190385759 131.33519644694584372
27.009497869018204596614 567.08052837862692286 27.009497869018204596614 128.99791455296761455
28.009497869018190385759 570.75156718475045636 28.009497869018190385759 126.56587395930378648
29.009497869018190385759 574.19014634399127317 29.009497869018190385759 124.10135525195184414
30.009497869018190385759 577.41452195659599056 30.009497869018190385759 121.63161898525294191
31.009497869018190385759 580.43239363384930130 31.009497869018190385759 119.09484165371301856
32.009497869018190385759 583.27003827319401807 32.009497869018190385759 116.54773340497163758
33.009497869018190385759 585.94853723891435493 33.009497869018190385759 114.04330958938186313
34.009497869018190385759 588.47843829693704265 34.009497869018190385759 111.51806606053494875
35.009497869018190385759 590.86644397120574013 35.009497869018190385759 108.89151448229721098
36.009497869018190385759 593.12160761092013672 36.009497869018190385759 106.44757502487212264
37.009497869018190385759 595.24917137099555475 37.009497869018190385759 104.02046927506167151
38.009497869018190385759 597.25399292506062920 38.009497869018190385759 101.57217338182753963
39.009497869018190385759 599.14053299766806049 39.009497869018190385759 99.07422151366719731
40.009497869018190385759 600.91966182854696399 40.009497869018190385759 96.47760364029139168
41.009497869018190385759 602.59826964453236542 41.009497869018190385759 94.07777738099160558
42.009497869018190385759 604.18265874776147939 42.009497869018190385759 91.61627860758569852
43.009497869018190385759 605.67898366708993763 43.009497869018190385759 89.23615411832038546
44.009497869018190385759 607.09269126089839119 44.009497869018190385759 86.83759022747521783
46.009497869018190385759 609.69161513640790417 46.009497869018190385759 82.21081386789964540
48.009497869018190385759 612.01452806252598293 48.009497869018190385759 77.78816131824846991
50.009497869018218807469 614.09128017625323537 50.009497869018218807469 73.50655635677225064
52.009497869018190385759 615.95045521855286097 52.009497869018190385759 69.38795939421653713
54.009497869018190385759 617.61549890380047145 54.009497869018190385759 65.46566003489978414
56.009497869018190385759 619.10810723074541784 56.009497869018190385759 61.70591168467198173
58.009497869018190385759 620.44657719440351684 58.009497869018190385759 58.12481737919625147
60.009497869018190385759 621.64821351135890382 60.009497869018190385759 54.71786981071305433
62.009497869018190385759 622.72690064750565853 62.009497869018190385759 51.47202388248241078
64.009497869018190385759 623.69688387125756890 64.009497869018190385759 48.38658439745599082
66.009497869018218807469 624.56880693854350284 66.009497869018218807469 45.48983439475154711
68.009497869018190385759 625.35318304128293221 68.009497869018190385759 42.75147139632128557
70.009497869018190385759 626.05926454588291108 70.009497869018190385759 40.12498879409446317
72.009497869018190385759 626.69463053157585364 72.009497869018190385759 37.68076604947126640
74.009497869018218807469 627.26711572285114471 74.009497869018218807469 35.35169961937962313
76.009497869018190385759 627.78311272730411474 76.009497869018190385759 33.14921601283357688
78.009497869018190385759 628.24826601404527082 78.009497869018190385759 31.06262115676387126
80.009497869018218807469 628.66782422240532924 80.009497869018218807469 29.10417216001356877
82.009497869018190385759 629.04617473206371869 82.009497869018190385759 27.24367969436611858
84.009497869018190385759 629.38725365304208026 84.009497869018190385759 25.42932073054946684
86.009497869018218807469 629.69506431099387100 86.009497869018218807469 23.76794116186845685
88.009497869018190385759 629.97285056950124726 88.009497869018190385759 22.14863391651817182
91.009497869018190385759 630.33951638511621240 91.009497869018190385759 19.90827265120767464
94.009497869018190385759 630.65426112103011747 94.009497869018190385759 17.82444601371373238
97.009497869018190385759 630.92377427963538139 97.009497869018190385759 15.94164688708988287
99.504748934509137825444 631.11824378891810738 99.504748934509137825444 13.54864081406740794
nan nan nan nan

