Time Pressure difference Time.1 Pressure.1 difference.1
(hr) (psi) (hr) (psi)
0.000200000000006639311 0.28267263899148970 0.000200000000006639311 0.22657706732557201
0.000399999999999067768 0.52858605824241289 0.000399999999999067768 0.48298112093952361
0.000600000000019917934 0.75482407068813562 0.000600000000019917934 0.66303006625818584
0.000799999999998135536 0.96700772539587787 0.000799999999998135536 0.83012683100805995
0.001007140329448930061 1.17520788637398366 0.001007140329448930061 0.99198266397680246
0.001267914553963578328 1.42382788857135756 0.001267914553963578328 1.18186395002493194
0.001596209851982166583 1.71946924922768729 0.001596209851982166583 1.40211315039388906
0.002009509145210586212 2.06951425766740549 0.002009509145210586212 1.65621294815644093
0.002529822128153114136 2.48216774501809745 0.002529822128153114136 1.94783120387921627
0.003184857364431081805 2.96650036380916804 0.003184857364431081805 2.28083640168172641
0.004009497869020606231 3.53249737520186846 0.004009497869020606231 2.65933271089099188
0.005047658755856332391 4.19111794032702800 0.005047658755856332391 3.08771717708218896
0.006354625877790454069 4.95437005517955598 0.006354625877790454069 3.57075666453590612
0.007999999999995566213 5.83540500846573007 0.007999999999995566213 4.11367868878970722
0.010071403294347192059 6.84863377068727885 0.010071403294347192059 4.72227934521228221
0.012679145539706837553 8.00987062627023327 0.012679145539706837553 5.40307779939261579
0.015962098519764822413 9.33651996170122267 0.015962098519764822413 6.16355508065194169
0.020095091452077440408 10.84782880709472863 0.020095091452077440408 7.01242937021464208
0.025298221281346400247 12.56519889610483709 0.025298221281346400247 7.95971649096819700
0.031848573644282396344 14.51246495964038807 0.031848573644282396344 9.01615651119433359
0.040094978690177640601 16.71593987198169984 0.040094978690177640601 10.19170715395704008
0.050476587558421215363 19.20399542237770873 0.050476587558421215363 11.49327165291442654
0.063546258777947173257 22.00605646967368756 0.063546258777947173257 12.92255391407920939
0.079999999999998294697 25.15118827990523798 0.079999999999998294697 14.47513146498325831
0.100714032943528764008 28.66665660803744942 0.100714032943528764008 16.14094033627758051
0.126791455396883634421 32.57672919918821464 0.126791455396883634421 17.90692351859556197
0.159620985197506115583 36.90244284985997325 0.159620985197506115583 19.76146932769128028
0.200950914520774404082 41.66243043671526181 0.200950914520774404082 21.69501172340486050
0.252982212813464002465 46.87294190816069062 0.252982212813464002465 23.70454960581426462
0.318485736442795541734 52.55071547493476203 0.318485736442795541734 25.80000644958727563
0.400949786901833249431 58.71587169060462941 0.400949786901833249431 27.98954633558198424
0.504765875584169521062 65.38797899858444396 0.504765875584169521062 30.29695924451285194
0.635462587779429100010 72.59682029422846483 0.635462587779429100010 32.74950859534475711
0.800000000000011368684 80.37277984462858171 0.800000000000011368684 35.38527054107507297
1.007140329435344483500 88.76074121646379922 1.007140329435344483500 38.24363077634439634
1.267914553968893187630 97.80594442972861202 1.267914553968893187630 41.35211429159074470
1.596209851975103788391 107.56149498380614205 1.596209851975103788391 44.73152462544768326
2.009509145207672986544 118.07630128859010199 2.009509145207672986544 48.35849824904440908
2.529822128134725289783 129.38520530416656129 2.529822128134725289783 52.16481939482831365
3.184857364427998049905 141.49652618902902645 3.184857364427998049905 56.03355650035961588
4.009497869018190385759 154.38058445823537568 4.009497869018190385759 59.81027009971990083
5.009497869018204596614 167.50452736960713196 5.009497869018204596614 63.21301859035252591
6.009497869018190385759 178.63784570205254454 6.009497869018190385759 65.71224694694946322
7.009497869018190385759 188.27870443857381133 7.009497869018190385759 67.54713038677435577
8.009497869018204596614 196.74860968451008603 8.009497869018204596614 68.87133416980569223
9.009497869018190385759 204.27346636628368515 9.009497869018190385759 69.78751876655020681
10.009497869018190385759 211.02136838170326882 10.009497869018190385759 70.38181237433400383
11.009497869018204596614 217.11596060315949330 11.009497869018204596614 70.80260854869987952
12.009497869018190385759 222.65443417758100964 12.009497869018190385759 71.02283889754190227
13.009497869018190385759 227.71342815588383246 13.009497869018190385759 71.08109773336921933
14.009497869018204596614 232.35496227407566039 14.009497869018204596614 71.00594082571748800
15.009497869018190385759 236.63007195531386628 15.009497869018190385759 70.80089827140794512
16.009497869018190385759 240.58144517006209639 16.009497869018190385759 70.47353844763958364
17.009497869018190385759 244.24076550439895072 17.009497869018190385759 69.97474883362913545
18.009497869018204596614 247.63701015443425035 18.009497869018204596614 69.39758250024354425
19.009497869018190385759 250.79423401914709757 19.009497869018190385759 68.63925792118162406
20.009497869018190385759 253.73214742383785847 20.009497869018190385759 67.89297755610462559
21.009497869018204596614 256.46821530496305286 21.009497869018204596614 67.09623978865903382
22.009497869018190385759 259.02171126668287116 22.009497869018190385759 66.26111666971834779
23.009497869018190385759 261.41247940787320658 23.009497869018190385759 65.36704810928864617
24.009497869018204596614 263.65385032135770871 24.009497869018204596614 64.47029778709955394
25.009497869018190385759 265.75788494246478422 25.009497869018190385759 63.52503617158553340
26.009497869018190385759 267.73551137055505933 26.009497869018190385759 62.43804421248245973
27.009497869018204596614 269.59566103246197599 27.009497869018204596614 61.32687741042722962
28.009497869018190385759 271.34090898947152937 28.009497869018190385759 60.17066139048868934
29.009497869018190385759 272.97564334386464679 29.009497869018190385759 58.99900495584595461
30.009497869018190385759 274.50854322526691931 30.009497869018190385759 57.82486804216942744
31.009497869018190385759 275.94326910461688840 31.009497869018190385759 56.61885914684717136
32.009497869018190385759 277.29231327742007807 32.009497869018190385759 55.40793883187176050
33.009497869018190385759 278.56569803161505661 33.009497869018190385759 54.21731111626350952
34.009497869018190385759 279.76843787887167991 34.009497869018190385759 53.01678550418874636
35.009497869018190385759 280.90371926499943811 35.009497869018190385759 51.76809704896096775
36.009497869018190385759 281.97584624125715891 36.009497869018190385759 50.60622419215232526
37.009497869018190385759 282.98731097965361414 37.009497869018190385759 49.45235424552112136
38.009497869018190385759 283.94042286601245451 38.009497869018190385759 48.28841029627866988
39.009497869018190385759 284.83730257266188346 39.009497869018190385759 47.10085940813686278
40.009497869018190385759 285.68311791848958592 40.009497869018190385759 45.86640173063033643
41.009497869018190385759 286.48114458510553959 41.009497869018190385759 44.72550072211075900
42.009497869018190385759 287.23437874893573962 42.009497869018190385759 43.55527999377025594
43.009497869018190385759 287.94574633353454374 43.009497869018190385759 42.42374540051297060
44.009497869018190385759 288.61783682895168113 44.009497869018190385759 41.28344453437346573
46.009497869018190385759 289.85339080255459976 46.009497869018190385759 39.08382954375556295
48.009497869018190385759 290.95772645595496897 48.009497869018190385759 36.98125702015091321
50.009497869018218807469 291.94503483789083020 50.009497869018218807469 34.94573990731795732
52.009497869018190385759 292.82890493996774239 52.009497869018190385759 32.98771840052917526
54.009497869018190385759 293.62048308541329789 54.009497869018190385759 31.12301870511629431
56.009497869018190385759 294.33008376543625673 56.009497869018190385759 29.33559735828668380
58.009497869018190385759 294.96640555143767415 58.009497869018190385759 27.63310990158510450
60.009497869018190385759 295.53767527589195652 60.009497869018190385759 26.01341351656850520
62.009497869018190385759 296.05049375045354054 62.009497869018190385759 24.47030643593425836
64.009497869018190385759 296.51163331584376692 64.009497869018190385759 23.00345815616760348
66.009497869018218807469 296.92615411832395012 66.009497869018218807469 21.62631471225893520
68.009497869018190385759 297.29905423274107079 68.009497869018190385759 20.32447000808716808
70.009497869018190385759 297.63473232509193167 70.009497869018190385759 19.07581434473343407
72.009497869018190385759 297.93679156419182164 72.009497869018190385759 17.91380681040437395
74.009497869018218807469 298.20895665512591677 74.009497869018218807469 16.80654572068867481
76.009497869018190385759 298.45426670642319777 76.009497869018190385759 15.75946335036350554
78.009497869018190385759 298.67540515421831060 78.009497869018190385759 14.76747563190413537
80.009497869018218807469 298.87486725327465820 80.009497869018218807469 13.83640971541628595
82.009497869018190385759 299.05473880704664680 82.009497869018190385759 12.95191329732159780
84.009497869018190385759 299.21689108095443999 84.009497869018190385759 12.08934919976941913
86.009497869018218807469 299.36322729539057264 86.009497869018218807469 11.29951301138008546
88.009497869018190385759 299.49528961500880087 88.009497869018190385759 10.52967841932831128
91.009497869018190385759 299.66960615030109238 91.009497869018190385759 9.46458863745938572
94.009497869018190385759 299.81923889360450630 94.009497869018190385759 8.47391695733931627
97.009497869018190385759 299.94736810015456285 97.009497869018190385759 7.57881573320666480
99.504748934509137825444 300.03982081768236867 99.504748934509137825444 6.44115710832712818
nan nan nan nan

