Time Pressure difference Time.1 Pressure.1 difference.1
(hr) (psi) (hr) (psi)
0.000200000000006639311 0.40033686556676495 0.000200000000006639311 0.32089116677882734
0.000399999999999067768 0.74861325982607740 0.000399999999999067768 0.68402498655228094
0.000600000000019917934 1.06902423804354174 0.000600000000019917934 0.93902041403560799
0.000799999999998135536 1.36953064557297965 0.000799999999998135536 1.17567223603358251
0.001007140329448930061 1.66439540557891763 0.001007140329448930061 1.40490155612478196
0.001267914553963578328 2.01650501460229226 0.001267914553963578328 1.67382209671018711
0.001596209851982166583 2.43520891208354717 0.001596209851982166583 1.98575138294701059
0.002009509145210586212 2.93096231073585756 0.002009509145210586212 2.34562178618215178
0.002529822128153114136 3.51538535316602463 0.002529822128153114136 2.75862793652844651
0.003184857364431081805 4.20132440687259034 0.003184857364431081805 3.23024859844086842
0.004009497869020606231 5.00292115946077409 0.004009497869020606231 3.76629632700078876
0.005047658755856332391 5.93569659036463282 0.005047658755856332391 4.37299846507945400
0.006354625877790454069 7.01665709785281955 0.006354625877790454069 5.05710611356686268
0.007999999999995566213 8.26442827553644044 0.007999999999995566213 5.82602277353221965
0.010071403294347192059 9.69941974912607208 0.010071403294347192059 6.68795720073168010
0.012679145539706837553 11.34402859631867955 0.012679145539706837553 7.65214220357328578
0.015962098519764822413 13.22290388664582039 0.015962098519764822413 8.72917283589868553
0.020095091452077440408 15.36330434502332132 0.020095091452077440408 9.93139627555029314
0.025298221281346400247 17.79554030852286317 0.025298221281346400247 11.27299749336629020
0.031848573644282396344 20.55336786155966422 0.031848573644282396344 12.76918717718409191
0.040094978690177640601 23.67405277435831934 0.040094978690177640601 14.43406801360910663
0.050476587558421215363 27.19777676814577205 0.050476587558421215363 16.27741674981723108
0.063546258777947173257 31.16621298044919186 0.063546258777947173257 18.30164655319099865
0.079999999999998294697 35.62052527326481055 0.079999999999998294697 20.50049406986545009
0.100714032943528764008 40.59932893995451053 0.100714032943528764008 22.85970614127982614
0.126791455396883634421 46.13699332397345643 0.126791455396883634421 25.36079069751834680
0.159620985197506115583 52.26331191790512776 0.159620985197506115583 27.98730261926720786
0.200950914520774404082 59.00467364805733439 0.200950914520774404082 30.72569394324579761
0.252982212813464002465 66.38409260392216993 0.252982212813464002465 33.57171434320985526
0.318485736442795541734 74.42527437952583114 0.318485736442795541734 36.53941800126276718
0.400949786901833249431 83.15671483275285425 0.400949786901833249431 39.64036734719122990
0.504765875584169521062 92.60612789208389017 0.504765875584169521062 42.90825508767213847
0.635462587779429100010 102.81569376645656178 0.635462587779429100010 46.38169320769269888
0.800000000000011368684 113.82844436123505716 0.800000000000011368684 50.11460729339450637
1.007140329435344483500 125.70794630410512127 1.007140329435344483500 54.16277757733504217
1.267914553968893187630 138.51827105195556555 1.267914553968893187630 58.56518649671103560
1.596209851975103788391 152.33462959529194336 1.596209851975103788391 63.35129719121284353
2.009509145207672986544 167.22628877078648202 2.009509145207672986544 68.48802091921314172
2.529822128134725289783 183.24259371895507797 2.529822128134725289783 73.87874667986768884
3.184857364427998049905 200.39532649924061047 3.184857364427998049905 79.35786942784920939
4.009497869018190385759 218.64245335833825834 4.009497869018190385759 84.70666331856882891
5.009497869018204596614 237.22931831902485555 5.009497869018204596614 89.52582682131206582
6.009497869018190385759 252.99694896226648666 6.009497869018190385759 93.06537437067964902
7.009497869018190385759 266.65087451275843478 7.009497869018190385759 95.66403934087500716
8.009497869018204596614 278.64642997190469487 8.009497869018204596614 97.53945110255733653
9.009497869018190385759 289.30355458279092318 9.009497869018190385759 98.83700317922750855
10.009497869018190385759 298.86031236324976135 10.009497869018190385759 99.67867516069470923
11.009497869018204596614 307.49181612516429141 11.009497869018204596614 100.27463033374982615
12.009497869018190385759 315.33571342884010846 12.009497869018190385759 100.58653292139555901
13.009497869018190385759 322.50054480205221807 13.009497869018190385759 100.66904235637265685
14.009497869018204596614 329.07414607781652194 14.009497869018204596614 100.56260092312204790
15.009497869018190385759 335.12879648843710356 15.009497869018190385759 100.27220814300386564
16.009497869018190385759 340.72495313494016500 16.009497869018190385759 99.80858277682946778
17.009497869018190385759 345.90748809120537999 17.009497869018190385759 99.10216891462253841
18.009497869018204596614 350.71744048965445018 18.009497869018204596614 98.28475354098532080
19.009497869018190385759 355.18887822908760654 19.009497869018190385759 97.21077168640255195
20.009497869018190385759 359.34971617908064445 20.009497869018190385759 96.15384752403980428
21.009497869018204596614 363.22468916343291312 21.009497869018204596614 95.02546275487426897
22.009497869018190385759 366.84109354271589609 22.009497869018190385759 93.84271449529076392
23.009497869018190385759 370.22703364415536953 23.009497869018190385759 92.57648439123391881
24.009497869018204596614 373.40138900192283700 24.009497869018204596614 91.30645622557203467
25.009497869018190385759 376.38124098994393307 25.009497869018190385759 89.96772364202385575
26.009497869018190385759 379.18206659622950383 26.009497869018190385759 88.42826458664386280
27.009497869018204596614 381.81651500902859198 27.009497869018204596614 86.85456776107304222
28.009497869018190385759 384.28823317474416399 28.009497869018190385759 85.21706970327832664
29.009497869018190385759 386.60343577025167860 29.009497869018190385759 83.55770406308232623
30.009497869018190385759 388.77441466632632228 30.009497869018190385759 81.89482542918084107
31.009497869018190385759 390.80635402747464013 31.009497869018190385759 80.18680790501754529
32.009497869018190385759 392.71694614412939472 32.009497869018190385759 78.47183455252773854
33.009497869018190385759 394.52038514329717600 33.009497869018190385759 76.78560071884609783
34.009497869018190385759 396.22377285800797608 34.009497869018190385759 75.08534892834612151
35.009497869018190385759 397.83162211176028222 35.009497869018190385759 73.31688621466146571
36.009497869018190385759 399.35002854365239955 36.009497869018190385759 71.67137662681670918
37.009497869018190385759 400.78252170763749973 37.009497869018190385759 70.03720120978977093
38.009497869018190385759 402.13237228560882386 38.009497869018190385759 68.38875842453259679
39.009497869018190385759 403.40258369280928719 39.009497869018190385759 66.70688216669630322
40.009497869018190385759 404.60047488456035580 40.009497869018190385759 64.95857387958729134
41.009497869018190385759 405.73068506511248188 41.009497869018190385759 63.34276580101894183
42.009497869018190385759 406.79745758777846731 42.009497869018190385759 61.68543348871403253
43.009497869018190385759 407.80493630980885200 43.009497869018190385759 60.08289065343585378
44.009497869018190385759 408.75678861243159190 44.009497869018190385759 58.46793253020872783
46.009497869018190385759 410.50664953563762083 46.009497869018190385759 55.35271425531884404
48.009497869018190385759 412.07067170486232044 48.009497869018190385759 52.37493297188860453
50.009497869018218807469 413.46895328026414518 50.009497869018218807469 49.49211932686655757
52.009497869018190385759 414.72073975488046926 52.009497869018190385759 46.71905931109427712
54.009497869018190385759 415.84181717761737218 54.009497869018190385759 44.07816688532479077
56.009497869018190385759 416.84679351016222881 56.009497869018190385759 41.54672039658828453
58.009497869018190385759 417.74798815782429529 58.009497869018190385759 39.13556205273751942
60.009497869018190385759 418.55705242275337241 60.009497869018190385759 36.84165707395785461
62.009497869018190385759 419.28333474510043288 62.009497869018190385759 34.65622216911872044
64.009497869018190385759 419.93642649411373213 64.009497869018190385759 32.57878926058219093
66.009497869018218807469 420.52349413309428883 66.009497869018218807469 30.62840137819923214
68.009497869018190385759 421.05161621632049673 68.009497869018190385759 28.78465579963084053
70.009497869018190385759 421.52702238159571380 70.009497869018190385759 27.01623952763971559
72.009497869018190385759 421.95481563894162491 72.009497869018190385759 25.37053920192737877
74.009497869018218807469 422.34027112487046907 74.009497869018218807469 23.80237386550735579
76.009497869018190385759 422.68769299555015095 76.009497869018190385759 22.31943701098279575
78.009497869018190385759 423.00088168392983334 78.009497869018190385759 20.91452829641595557
80.009497869018218807469 423.28337110993328452 80.009497869018218807469 19.59590045902552546
82.009497869018190385759 423.53811530554639830 82.009497869018190385759 18.34322696049240875
84.009497869018190385759 423.76776446194281789 84.009497869018190385759 17.12161524597885887
86.009497869018218807469 423.97501402672310178 86.009497869018218807469 16.00300488064913651
88.009497869018190385759 424.16204810007400283 88.009497869018190385759 14.91272189929502368
91.009497869018190385759 424.40892496655942523 91.009497869018190385759 13.40428193728853934
94.009497869018190385759 424.62084326064672268 94.009497869018190385759 12.00123707012341612
97.009497869018190385759 424.80230703839617945 97.009497869018190385759 10.73354444973850264
99.504748934509137825444 424.93324376888512006 99.504748934509137825444 9.12232841696576102
nan nan nan nan

