Time Pressure difference Time.1 Pressure.1 difference.1
(hr) (psi) (hr) (psi)
0.000200000000006639311 0.72617626223675802 0.000200000000006639311 0.58206867295707299
0.000399999999999067768 1.35791935651930218 0.000399999999999067768 1.24076184517222443
0.000600000000019917934 1.93911700918158991 0.000600000000019917934 1.70330137711154639
0.000799999999998135536 2.48420950144803099 0.000799999999998135536 2.13256720379656795
0.001007140329448930061 3.01906853568488920 0.001007140329448930061 2.54836925745764820
0.001267914553963578328 3.65776474822641884 0.001267914553963578328 3.03616773368473947
0.001596209851982166583 4.41725720922285170 0.001596209851982166583 3.60198033463257694
0.002009509145210586212 5.31651076538695566 0.002009509145210586212 4.25475395302258086
0.002529822128153114136 6.37660334496028458 0.002529822128153114136 5.00391119617246893
0.003184857364431081805 7.62083714150975933 0.003184857364431081805 5.85939006638926330
0.004009497869020606231 9.07486394663928309 0.004009497869020606231 6.83173403315099570
0.005047658755856332391 10.76683746739184500 0.005047658755856332391 7.93223895491803699
0.006354625877790454069 12.72760583140954971 0.006354625877790454069 9.17315074165258615
0.007999999999995566213 14.99095424588609937 0.007999999999995566213 10.56789870051148839
0.010071403294347192059 17.59390399711042363 0.010071403294347192059 12.13137280063155110
0.012679145539706837553 20.57708143645284338 0.012679145539706837553 13.88032055361206218
0.015962098519764822413 23.98519783264624294 0.015962098519764822413 15.83396046581274597
0.020095091452077440408 27.86769814236404130 0.020095091452077440408 18.01468924417210005
0.025298221281346400247 32.27956268137277362 0.025298221281346400247 20.44823719231484915
0.031848573644282396344 37.28202205148996029 0.031848573644282396344 23.16219517530957717
0.040094978690177640601 42.94267311940126319 0.040094978690177640601 26.18214424033791232
0.050476587558421215363 49.33440203334963314 0.050476587558421215363 29.52581855662499422
0.063546258777947173257 56.53280024105826840 0.063546258777947173257 33.19759539996210407
0.079999999999998294697 64.61253540872208134 0.079999999999998294697 37.18611359107767811
0.100714032943528764008 73.64365232064793076 0.100714032943528764008 41.46551913974758463
0.126791455396883634421 83.68849397722490835 0.126791455396883634421 46.00226903915067567
0.159620985197506115583 94.80110318326096319 0.159620985197506115583 50.76653327286208395
0.200950914520774404082 107.02934715638922114 0.200950914520774404082 55.73373701357455445
0.252982212813464002465 120.41497145372316879 0.252982212813464002465 60.89617053907458200
0.318485736442795541734 135.00097596147031709 0.318485736442795541734 66.27932691359490036
0.400949786901833249431 150.83904968793260082 0.400949786901833249431 71.90417937933992221
0.504765875584169521062 167.97946328946696326 0.504765875584169521062 77.83184357642093687
0.635462587779429100010 186.49872799724207084 0.635462587779429100010 84.13235828804084804
0.800000000000011368684 206.47489994568377369 0.800000000000011368684 90.90353983827907314
1.007140329435344483500 228.02328346988113594 1.007140329435344483500 98.24656871853990481
1.267914553968893187630 251.26009862119940408 1.267914553968893187630 106.23215568012105336
1.596209851975103788391 276.32177159632959729 1.596209851975103788391 114.91374429640869437
2.009509145207672986544 303.33394641379180712 2.009509145207672986544 124.23131446737272654
2.529822128134725289783 332.38613086760022952 2.529822128134725289783 134.00962223843825427
3.184857364427998049905 363.49969658905729375 3.184857364427998049905 143.94827445782038922
4.009497869018190385759 396.59839800477703875 4.009497869018190385759 153.65052146307354519
5.009497869018204596614 430.31335479433556657 5.009497869018204596614 162.39206499935389161
6.009497869018190385759 458.91446568285908825 6.009497869018190385759 168.81249646716324264
7.009497869018190385759 483.68149933357750569 7.009497869018190385759 173.52624875223068557
8.009497869018204596614 505.44039384468976550 8.009497869018204596614 176.92808260863878900
9.009497869018190385759 524.77149118234945036 9.009497869018190385759 179.28172924510309372
10.009497869018190385759 542.10661877368590922 10.009497869018190385759 180.80844903061665718
11.009497869018204596614 557.76341603225455401 11.009497869018204596614 181.88945989234969147
12.009497869018190385759 571.99156366309603072 12.009497869018190385759 182.45522406437490304
13.009497869018190385759 584.98794474528779119 13.009497869018190385759 182.60488900468988049
14.009497869018204596614 596.91188584202200218 14.009497869018204596614 182.41181350055009602
15.009497869018190385759 607.89449519554773360 15.009497869018190385759 181.88506624896180597
16.009497869018190385759 618.04543672998715920 16.009497869018190385759 181.04409014997068539
17.009497869018190385759 627.44610448543869552 17.009497869018190385759 179.76271683121967726
18.009497869018204596614 636.17093987949499478 18.009497869018204596614 178.27999642303944938
19.009497869018190385759 644.28173911815372321 19.009497869018190385759 176.33188672855277446
20.009497869018190385759 651.82913734744545309 20.009497869018190385759 174.41471820447569030
21.009497869018204596614 658.85800138688784955 21.009497869018204596614 172.36792635362411374
22.009497869018190385759 665.41784446096119154 22.009497869018190385759 170.22252385841440514
23.009497869018190385759 671.55964537539841785 23.009497869018190385759 167.92569255662084515
24.009497869018204596614 677.31764996348783825 24.009497869018204596614 165.62197190134196489
25.009497869018190385759 682.72284235219399307 25.009497869018190385759 163.19362740631456177
26.009497869018190385759 687.80329645194319710 26.009497869018190385759 160.40118254586010949
27.009497869018204596614 692.58195679029017811 27.009497869018204596614 157.54663334747681347
28.009497869018190385759 697.06543861088368885 28.009497869018190385759 154.57635426177267846
29.009497869018190385759 701.26501479716955600 29.009497869018190385759 151.56640928312148731
30.009497869018190385759 705.20298173387550378 30.009497869018190385759 148.55009203936629092
31.009497869018190385759 708.88874304461921838 31.009497869018190385759 145.45189677379701720
32.009497869018190385759 712.35439100578605576 32.009497869018190385759 142.34108424049816222
33.009497869018190385759 715.62567252949384056 33.009497869018190385759 139.28240269522865447
34.009497869018190385759 718.71546972330838798 34.009497869018190385759 136.19829379524347246
35.009497869018190385759 721.63196845663651402 35.009497869018190385759 132.99045621198592926
36.009497869018190385759 724.38622568874677654 36.009497869018190385759 130.00564490742578982
37.009497869018190385759 726.98464372359285335 37.009497869018190385759 127.04139280314910820
38.009497869018190385759 729.43315529372171113 38.009497869018190385759 124.05126093354346040
39.009497869018190385759 731.73720833321760892 39.009497869018190385759 121.00048365193781308
40.009497869018190385759 733.91007879060248342 40.009497869018190385759 117.82920444592964770
41.009497869018190385759 735.96018177897792611 41.009497869018190385759 114.89826909645695707
42.009497869018190385759 737.89521437226596845 42.009497869018190385759 111.89201239778908814
43.009497869018190385759 739.72269316718359278 43.009497869018190385759 108.98513904614537751
44.009497869018190385759 741.44927047437590772 44.009497869018190385759 106.05574544175253493
46.009497869018190385759 744.62336602725235934 46.009497869018190385759 100.40501037964791919
48.009497869018190385759 747.46036624029807172 48.009497869018190385759 95.00357406900837987
50.009497869018218807469 749.99672742837481110 50.009497869018218807469 89.77440079638577686
52.009497869018190385759 752.26735924233094011 52.009497869018190385759 84.74431106342841247
54.009497869018190385759 754.30089620218245727 54.009497869018190385759 79.95396184590219946
56.009497869018190385759 756.12383588017257807 56.009497869018190385759 75.36213804111578440
58.009497869018190385759 757.75852460627959317 58.009497869018190385759 70.98850647131345681
60.009497869018190385759 759.22609682944653287 60.009497869018190385759 66.82756230980530177
62.009497869018190385759 760.54350980719959807 62.009497869018190385759 62.86337343024490565
64.009497869018190385759 761.72816144932278348 64.009497869018190385759 59.09509078049952535
66.009497869018218807469 762.79305109707365773 66.009497869018218807469 55.55725676080312070
68.009497869018190385759 763.75101863238660371 68.009497869018190385759 52.21286260698255433
70.009497869018190385759 764.61336407652925118 70.009497869018190385759 49.00510926491864439
72.009497869018190385759 765.38934384594108451 72.009497869018190385759 46.01995197845261742
74.009497869018218807469 766.08852657954776078 74.009497869018218807469 43.17543642038987173
76.009497869018190385759 766.71871964236311214 76.009497869018190385759 40.48551791731313898
78.009497869018190385759 767.28681668928481940 78.009497869018190385759 37.93713567506407003
80.009497869018218807469 767.79922794375727335 80.009497869018218807469 35.54525944132804227
82.009497869018190385759 768.26131176293017688 82.009497869018190385759 33.27301864311927204
84.009497869018190385759 768.67787536314153840 84.009497869018190385759 31.05712122009730081
86.009497869018218807469 769.05380805195170524 86.009497869018218807469 29.02805928785573641
88.009497869018190385759 769.39307159717770901 88.009497869018190385759 27.05038076689514881
91.009497869018190385759 769.84088476542865465 91.009497869018190385759 24.31420184450773547
94.009497869018190385759 770.22528612322537356 94.009497869018190385759 21.76920045937169235
97.009497869018190385759 770.55444563660387303 97.009497869018190385759 19.46971628013436373
99.504748934509137825444 770.79195347990810205 99.504748934509137825444 16.54711050242658743
nan nan nan nan

