Time Pressure difference Time.1 Pressure.1 difference.1
(hr) (psi) (hr) (psi)
0.000200000000006639311 0.24786073763785796 0.000200000000006639311 0.19867348760567397
0.000399999999999067768 0.46348925304014532 0.000399999999999067768 0.42350068732628177
0.000600000000019917934 0.66186544129304503 0.000600000000019917934 0.58137611721161120
0.000799999999998135536 0.84791810404170564 0.000799999999998135536 0.72789446265731372
0.001007140329448930061 1.03047785110625156 0.001007140329448930061 0.86981731127029971
0.001267914553963578328 1.24847962643202792 0.001267914553963578328 1.03631420248491590
0.001596209851982166583 1.50771195252477019 0.001596209851982166583 1.22943911709414921
0.002009509145210586212 1.81464796977733078 0.002009509145210586212 1.45224583631451476
0.002529822128153114136 2.17648206213409523 0.002529822128153114136 1.70795051374630780
0.003184857364431081805 2.60116780668981207 0.003184857364431081805 1.99994521920860757
0.004009497869020606231 3.09746075264006215 0.004009497869020606231 2.33182868245614072
0.005047658755856332391 3.67497041073010289 0.005047658755856332391 2.70745644098832328
0.006354625877790454069 4.34422595971409375 0.006354625877790454069 3.13100830683443965
0.007999999999995566213 5.11675907146256126 0.007999999999995566213 3.60706801283038336
0.010071403294347192059 6.00520596641544735 0.010071403294347192059 4.14071784949648336
0.012679145539706837553 7.02343335702513105 0.012679145539706837553 4.73767412951667755
0.015962098519764822413 8.18670223242767214 0.015962098519764822413 5.40449657318248988
0.020095091452077440408 9.51188929883183043 0.020095091452077440408 6.14882969407983371
0.025298221281346400247 11.01776060840719751 0.025298221281346400247 6.97945583937112790
0.031848573644282396344 12.72521558037433032 0.031848573644282396344 7.90579240883049916
0.040094978690177640601 14.65732658725488946 0.040094978690177640601 8.93657080494755185
0.050476587558421215363 16.83897135558242653 0.050476587558421215363 10.07784410945205877
0.063546258777947173257 19.29595099311288919 0.063546258777947173257 11.33110638771477419
0.079999999999998294697 22.05375129962134650 0.079999999999998294697 12.69247980673408804
0.100714032943528764008 25.13628017847618779 0.100714032943528764008 14.15313980225324997
0.126791455396883634421 28.56481673623400397 0.126791455396883634421 15.70163737098527079
0.159620985197506115583 32.35780703091169386 0.159620985197506115583 17.32779083905935025
0.200950914520774404082 36.53158924992766998 0.200950914520774404082 19.02321225007913696
0.252982212813464002465 41.10041211651528670 0.252982212813464002465 20.78527009770905920
0.318485736442795541734 46.07895248541077393 0.318485736442795541734 22.62266575382529510
0.400949786901833249431 51.48485300949568000 0.400949786901833249431 24.54255787060883165
0.504765875584169521062 57.33527222535976620 0.504765875584169521062 26.56580662819353478
0.635462587779429100010 63.65632518410181007 0.635462587779429100010 28.71631788163234944
0.800000000000011368684 70.47465424799945310 0.800000000000011368684 31.02747860251903234
1.007140329435344483500 77.82961545088944888 1.007140329435344483500 33.53382403048917126
1.267914553968893187630 85.76087738173248454 1.267914553968893187630 36.25948937883326550
1.596209851975103788391 94.31500545378075628 1.596209851975103788391 39.22271617403787047
2.009509145207672986544 103.53488487373910232 2.009509145207672986544 42.40301816911283339
2.529822128134725289783 113.45106671990957636 2.529822128134725289783 45.74058055310068482
3.184857364427998049905 124.07084562387764493 3.184857364427998049905 49.13287220228576757
4.009497869018190385759 135.36819720968421166 4.009497869018190385759 52.44447328940956510
5.009497869018204596614 146.87589099403973592 5.009497869018204596614 55.42816408415147578
6.009497869018190385759 156.63811100968155188 6.009497869018190385759 57.61960569732514159
7.009497869018190385759 165.09167187224699092 7.009497869018190385759 59.22851827017652937
8.009497869018204596614 172.51848533912706785 8.009497869018204596614 60.38964276958332533
9.009497869018190385759 179.11663553299749196 9.009497869018190385759 61.19299675096520019
10.009497869018190385759 185.03351513272502871 10.009497869018190385759 61.71410149079532914
11.009497869018204596614 190.37754180966692275 11.009497869018204596614 62.08307547619989464
12.009497869018190385759 195.23393735768189572 12.009497869018190385759 62.27618386089881142
13.009497869018190385759 199.66990252092276137 13.009497869018190385759 62.32726796324985230
14.009497869018204596614 203.73981913687421752 14.009497869018204596614 62.26136683240252268
15.009497869018190385759 207.48843747805847215 15.009497869018190385759 62.08157582419022447
16.009497869018190385759 210.95318837571949189 16.009497869018190385759 61.79453124965441901
17.009497869018190385759 214.16185349646804070 17.009497869018190385759 61.35716892800979139
18.009497869018204596614 217.13984141620343848 18.009497869018204596614 60.85108219233178062
19.009497869018190385759 219.90824460792205741 19.009497869018190385759 60.18614733975531550
20.009497869018190385759 222.48434601696126833 20.009497869018190385759 59.53177342357942337
21.009497869018204596614 224.88345972553412366 21.009497869018204596614 58.83315607084389143
22.009497869018190385759 227.12248574122932609 22.009497869018190385759 58.10088062664958386
23.009497869018190385759 229.21882430838144273 23.009497869018190385759 57.31691903179004299
24.009497869018204596614 231.18416432119047954 24.009497869018204596614 56.53060594139764561
25.009497869018190385759 233.02908137812184464 25.009497869018190385759 55.70175585488781422
26.009497869018190385759 234.76315775349166870 26.009497869018190385759 54.74862990060038470
27.009497869018204596614 236.39422494472032099 27.009497869018204596614 53.77430630076869988
28.009497869018190385759 237.92454088731986417 28.009497869018190385759 52.76048141629057397
29.009497869018190385759 239.35795327688623502 29.009497869018190385759 51.73311764601270824
30.009497869018190385759 240.70207238471684263 30.009497869018190385759 50.70357887441456768
31.009497869018190385759 241.96010788483647502 31.009497869018190385759 49.64609324206303143
32.009497869018190385759 243.14301361271316182 32.009497869018190385759 48.58430104469543664
33.009497869018190385759 244.25957758437181155 33.009497869018190385759 47.54030235810297711
34.009497869018190385759 245.31419676078405701 34.009497869018190385759 46.48762472781081811
35.009497869018190385759 246.30966516832461366 35.009497869018190385759 45.39271563899040984
36.009497869018190385759 247.24975680267871780 36.009497869018190385759 44.37393057242913130
37.009497869018190385759 248.13665691811991110 37.009497869018190385759 43.36216283597418197
38.009497869018190385759 248.97239049335081518 38.009497869018190385759 42.34156173762365682
39.009497869018190385759 249.75881703415669222 39.009497869018190385759 41.30026095885892801
40.009497869018190385759 250.50046792852782573 40.009497869018190385759 40.21783008892708722
41.009497869018190385759 251.20021544900879462 41.009497869018190385759 39.21743413071781248
42.009497869018190385759 251.86068678478110883 42.009497869018190385759 38.19132925562120562
43.009497869018190385759 252.48444752398597757 43.009497869018190385759 37.19914621325767712
44.009497869018190385759 253.07376825395763831 44.009497869018190385759 36.19927648826836020
46.009497869018190385759 254.15716040815129872 46.009497869018190385759 34.27055004329305632
48.009497869018190385759 255.12549413379301200 48.009497869018190385759 32.42691502259538083
50.009497869018218807469 255.99121281352003621 50.009497869018218807469 30.64207735715564951
52.009497869018190385759 256.76623191780424804 52.009497869018190385759 28.92519150391228067
54.009497869018190385759 257.46032506996829170 54.009497869018190385759 27.29013462813152557
56.009497869018190385759 258.08253650368305898 56.009497869018190385759 25.72283906293117894
58.009497869018190385759 258.64049353771383721 58.009497869018190385759 24.23001754917314443
60.009497869018190385759 259.14140984782648047 60.009497869018190385759 22.80979116231129922
62.009497869018190385759 259.59107333783606464 62.009497869018190385759 21.45672189948915332
64.009497869018190385759 259.99542231635564349 64.009497869018190385759 20.17051995959523580
66.009497869018218807469 260.35889375892446651 66.009497869018218807469 18.96297546198074002
68.009497869018190385759 260.68587021393057057 68.009497869018190385759 17.82145646029318087
70.009497869018190385759 260.98020863973579253 70.009497869018190385759 16.72657612493867418
72.009497869018190385759 261.24506846515339475 72.009497869018190385759 15.70767296675851554
74.009497869018218807469 261.48371568774592788 74.009497869018218807469 14.73677408020977175
76.009497869018190385759 261.69881514159277458 76.009497869018190385759 13.81864274071282672
78.009497869018190385759 261.89271979039830285 78.009497869018190385759 12.94882099743318093
80.009497869018218807469 262.06761759154130687 80.009497869018218807469 12.13241837115319655
82.009497869018190385759 262.22533747612959587 82.009497869018190385759 11.35685008336573532
84.009497869018190385759 262.36752025817679623 84.009497869018190385759 10.60051309142343001
86.009497869018218807469 262.49583477132767939 86.009497869018218807469 9.90794736958450883
88.009497869018190385759 262.61163325848059458 88.009497869018190385759 9.23291999330265867
91.009497869018190385759 262.76448224016547783 91.009497869018190385759 8.29899890378212213
94.009497869018190385759 262.89568730572216282 94.009497869018190385759 7.43033112515467220
97.009497869018190385759 263.00803705333748894 97.009497869018190385759 6.64546404192505591
99.504748934509137825444 263.08910396821408995 99.504748934509137825444 5.64791115902575758
nan nan nan nan

