Time Pressure difference Time.1 Pressure.1 difference.1
(hr) (psi) (hr) (psi)
0.000200000000006639311 0.46926443024695580 0.000200000000006639311 0.37614025462422546
0.000399999999999067768 0.87750493412656727 0.000399999999999067768 0.80179624510649972
0.000600000000019917934 1.25308232424582111 0.000600000000019917934 1.10069523314782569
0.000799999999998135536 1.60532809585424063 0.000799999999998135536 1.37809232536806014
0.001007140329448930061 1.95096087540902730 0.001007140329448930061 1.64678895448365759
0.001267914553963578328 2.36369457363816515 0.001267914553963578328 1.96201059683941947
0.001596209851982166583 2.85448835955532321 0.001596209851982166583 2.32764596888049580
0.002009509145210586212 3.43559756075820477 0.002009509145210586212 2.74947666762916532
0.002529822128153114136 4.12064300527634941 0.002529822128153114136 3.23359170299160548
0.003184857364431081805 4.92468286996891447 0.003184857364431081805 3.78641313973764415
0.004009497869020606231 5.86429367213315089 0.004009497869020606231 4.41475430330179375
0.005047658755856332391 6.95766869896654327 0.005047658755856332391 5.12591472254530878
0.006354625877790454069 8.22474240687443547 0.006354625877790454069 5.92780786181576502
0.007999999999995566213 9.68734723080271465 0.007999999999995566213 6.82911191193168055
0.010071403294347192059 11.36940680158430084 0.010071403294347192059 7.83944896224896137
0.012679145539706837553 13.29717438942398466 0.012679145539706837553 8.96964146992764277
0.015962098519764822413 15.49954299060744667 0.015962098519764822413 10.23210868068819757
0.020095091452077440408 18.00846457138385759 0.020095091452077440408 11.64132363429721373
0.025298221281346400247 20.85946811816418744 0.025298221281346400247 13.21391358352848577
0.031848573644282396344 24.09212163250645489 0.031848573644282396344 14.96770809986448292
0.040094978690177640601 27.75010707811740573 0.040094978690177640601 16.91923798464789286
0.050476587558421215363 31.88052442040043388 0.050476587558421215363 19.07996328587271861
0.063546258777947173257 36.53222182403956708 0.063546258777947173257 21.45271265539258110
0.079999999999998294697 41.75345049422692512 0.079999999999998294697 24.03014435319880704
0.100714032943528764008 47.58947427048581602 0.100714032943528764008 26.79555119864800261
0.126791455396883634421 54.08058000062280257 0.126791455396883634421 29.72725726978672256
0.159620985197506115583 61.26169083942271243 0.159620985197506115583 32.80598602675843267
0.200950914520774404082 69.16373919789675995 0.200950914520774404082 36.01585690043072674
0.252982212813464002465 77.81370159138006670 0.252982212813464002465 39.35188776925816256
0.318485736442795541734 87.23936509878332402 0.318485736442795541734 42.83055257887148315
0.400949786901833249431 97.47413182134856413 0.400949786901833249431 46.46540450783807330
0.504765875584169521062 108.55048730306877758 0.504765875584169521062 50.29593726798438524
0.635462587779429100010 120.51787408450734063 0.635462587779429100010 54.36741082084326848
0.800000000000011368684 133.42673304256075539 0.800000000000011368684 58.74303533173547009
1.007140329435344483500 147.35157531994238411 1.007140329435344483500 63.48819493412838710
1.267914553968893187630 162.36750380698791218 1.267914553968893187630 68.64858382397083858
1.596209851975103788391 178.56267886474222450 1.596209851975103788391 74.25873792500428294
2.009509145207672986544 196.01829327219144261 2.009509145207672986544 80.27987147747768404
2.529822128134725289783 214.79218811578388681 2.529822128134725289783 86.59873958648837800
3.184857364427998049905 234.89817401824026888 3.184857364427998049905 93.02122433803542378
4.009497869018190385759 256.28698011046952843 4.009497869018190385759 99.29094100298328840
5.009497869018204596614 278.07401834264828722 5.009497869018204596614 104.93983874359015829
6.009497869018190385759 296.55642365316106179 6.009497869018190385759 109.08880404493579874
7.009497869018190385759 312.56119899408554375 7.009497869018190385759 112.13489133173870016
8.009497869018204596614 326.62207617576308394 8.009497869018204596614 114.33320007499764870
9.009497869018190385759 339.11407963269749644 9.009497869018190385759 115.85415677008580815
10.009497869018190385759 350.31626179622662676 10.009497869018190385759 116.84074271010126722
11.009497869018204596614 360.43388533627950210 11.009497869018204596614 117.53930581729980531
12.009497869018190385759 369.62829713224039097 12.009497869018190385759 117.90490989394888288
13.009497869018190385759 378.02672555927512121 13.009497869018190385759 118.00162530120898907
14.009497869018204596614 385.73212948947536916 14.009497869018204596614 117.87685742988566062
15.009497869018190385759 392.82923275340277769 15.009497869018190385759 117.53646658849497442
16.009497869018190385759 399.38890158773858730 16.009497869018190385759 116.99301702884011434
17.009497869018190385759 405.46373386690856933 17.009497869018190385759 116.16497712774885542
18.009497869018204596614 411.10183459135146222 18.009497869018204596614 115.20682415065061832
19.009497869018190385759 416.34313726331311045 19.009497869018190385759 113.94793063762664076
20.009497869018190385759 421.22036296469633498 20.009497869018190385759 112.70903170643970270
21.009497869018204596614 425.76250521070227251 21.009497869018204596614 111.38636851614826639
22.009497869018190385759 430.00156008311392952 22.009497869018190385759 109.99998186056691907
23.009497869018190385759 433.97047074114914267 23.009497869018190385759 108.51573996468115979
24.009497869018204596614 437.69136728225390698 24.009497869018204596614 107.02704608006183662
25.009497869018190385759 441.18427204734302904 25.009497869018190385759 105.45781866908534141
26.009497869018190385759 444.46732675801513324 26.009497869018190385759 103.65330492417038499
27.009497869018204596614 447.55535846275705580 27.009497869018204596614 101.80865855819692456
28.009497869018190385759 450.45264201700439344 28.009497869018190385759 99.88922605219057971
29.009497869018190385759 453.16646210286893393 29.009497869018190385759 97.94416093655215150
30.009497869018190385759 455.71122693061562359 30.009497869018190385759 95.99497798133545245
31.009497869018190385759 458.09301324263981314 31.009497869018190385759 93.99288439649012616
32.009497869018190385759 460.33255948024913096 32.009497869018190385759 91.98263737113687455
33.009497869018190385759 462.44650362883879779 33.009497869018190385759 90.00607806000395783
34.009497869018190385759 464.44317027182154334 34.009497869018190385759 88.01308726557441275
35.009497869018190385759 466.32784922317642895 35.009497869018190385759 85.94014140640318544
36.009497869018190385759 468.10768563203771464 36.009497869018190385759 84.01131799386863008
37.009497869018190385759 469.78681674947421243 37.009497869018190385759 82.09578020069270110
38.009497869018190385759 471.36907638347884131 38.009497869018190385759 80.16351857066950970
39.009497869018190385759 472.85798505904949707 39.009497869018190385759 78.19206709626661223
40.009497869018190385759 474.26212186468461596 40.009497869018190385759 76.14274573015971725
41.009497869018190385759 475.58692475458406079 41.009497869018190385759 74.24873765197699527
42.009497869018190385759 476.83736767680471758 42.009497869018190385759 72.30605595024914578
43.009497869018190385759 478.01830795271501984 43.009497869018190385759 70.42759704420133460
44.009497869018190385759 479.13404439091976883 44.009497869018190385759 68.53458526149684360
46.009497869018190385759 481.18518571655613414 46.009497869018190385759 64.88300766623460447
48.009497869018190385759 483.01849170274294920 48.009497869018190385759 61.39253012704855905
50.009497869018218807469 484.65752088851826329 50.009497869018218807469 58.01337117618793116
52.009497869018190385759 486.12483233876417899 52.009497869018190385759 54.76286256639572514
54.009497869018190385759 487.43893004819841508 54.009497869018190385759 51.66727735775462804
56.009497869018190385759 488.61693708843364448 56.009497869018190385759 48.69998182139217846
58.009497869018190385759 489.67329394499756745 58.009497869018190385759 45.87368491051319808
60.009497869018190385759 490.62165797032315595 60.009497869018190385759 43.18482933538712132
62.009497869018190385759 491.47298716208291580 62.009497869018190385759 40.62311955128002694
64.009497869018190385759 492.23852427310021085 64.009497869018190385759 38.18800688979547431
66.009497869018218807469 492.92666964470527091 66.009497869018218807469 35.90181309375005014
68.009497869018190385759 493.54572057356523374 68.009497869018190385759 33.74062262426293302
70.009497869018190385759 494.10297927860091249 70.009497869018190385759 31.66773120283333398
72.009497869018190385759 494.60442737503768740 72.009497869018190385759 29.73868421234617898
74.009497869018218807469 495.05624824028302555 74.009497869018218807469 27.90052171365558209
76.009497869018190385759 495.46348709391440934 76.009497869018190385759 26.16226181809113882
78.009497869018190385759 495.83059870429343619 78.009497869018190385759 24.51546447266844098
80.009497869018218807469 496.16172544016529855 80.009497869018218807469 22.96980332066644692
82.009497869018190385759 496.46032994076216482 82.009497869018190385759 21.50145212412501650
84.009497869018190385759 496.72951869104258549 84.009497869018190385759 20.06951074050391171
86.009497869018218807469 496.97245122436754627 86.009497869018218807469 18.75830485140437887
88.009497869018190385759 497.19168768599985242 88.009497869018190385759 17.48030358282582242
91.009497869018190385759 497.48107030862797728 91.009497869018190385759 15.71214960996952570
94.009497869018190385759 497.72947540465372640 94.009497869018190385759 14.06753701784901267
97.009497869018190385759 497.94218251109401763 97.009497869018190385759 12.58158079847608768
99.504748934509137825444 498.09566313083234945 99.504748934509137825444 10.69295539658247307
nan nan nan nan

