Time Pressure difference Time.1 Pressure.1 difference.1
(hr) (psi) (hr) (psi)
0.000200000000006639311 0.33349801496779208 0.000200000000006639311 0.26731629371662313
0.000399999999999067768 0.62362739383772359 0.000399999999999067768 0.56982255401485660
0.000600000000019917934 0.89054366960496789 0.000600000000019917934 0.78224483186618476
0.000799999999998135536 1.14087857257296910 0.000799999999998135536 0.97938608880014966
0.001007140329448930061 1.38651373786487220 0.001007140329448930061 1.17034407892829662
0.001267914553963578328 1.67983635129477893 0.001267914553963578328 1.39436658143335590
0.001596209851982166583 2.02863490241394651 0.001596209851982166583 1.65421723901150952
0.002009509145210586212 2.44161903798691382 0.002009509145210586212 1.95400493144565290
0.002529822128153114136 2.92846884202874014 0.002529822128153114136 2.29805701147326236
0.003184857364431081805 3.49988589720342702 0.003184857364431081805 2.69093752809248032
0.004009497869020606231 4.16765084414210563 0.004009497869020606231 3.13748859240587485
0.005047658755856332391 4.94469333353853724 0.005047658755856332391 3.64289785177923253
0.006354625877790454069 5.84518043455913183 0.006354625877790454069 4.21278926678004684
0.007999999999995566213 6.88462807649035557 0.007999999999995566213 4.85333027569031916
0.010071403294347192059 8.08003836492415495 0.010071403294347192059 5.57135912895734720
0.012679145539706837553 9.45006903936808307 0.012679145539706837553 6.37456715741148461
0.015962098519764822413 11.01525384644060424 0.015962098519764822413 7.27178050155733935
0.020095091452077440408 12.79830048915855834 0.020095091452077440408 8.27328489737146100
0.025298221281346400247 14.82445879614339290 0.025298221281346400247 9.39089704229991717
0.031848573644282396344 17.12184905336883389 0.031848573644282396344 10.63728810064553087
0.040094978690177640601 19.72151526768284313 0.040094978690177640601 12.02420622351089108
0.050476587558421215363 22.65693055989882509 0.050476587558421215363 13.55979586636948397
0.063546258777947173257 25.96281046545245275 0.063546258777947173257 15.24606730257128540
0.079999999999998294697 29.67344627111972954 0.079999999999998294697 17.07780288602704388
0.100714032943528764008 33.82100619519689388 0.100714032943528764008 19.04312911595310709
0.126791455396883634421 38.43412139510137138 0.126791455396883634421 21.12664129410659086
0.159620985197506115583 43.53761114552444411 0.159620985197506115583 23.31463992109389949
0.200950914520774404082 49.15345856942514757 0.200950914520774404082 25.59583895446041168
0.252982212813464002465 55.30083540396298503 0.252982212813464002465 27.96669768764786213
0.318485736442795541734 61.99948943963978110 0.318485736442795541734 30.43892386539976513
0.400949786901833249431 69.27315896502368275 0.400949786901833249431 33.02214949444278602
0.504765875584169521062 77.14493088749249239 0.504765875584169521062 35.74444206433905435
0.635462587779429100010 85.64994315501338917 0.635462587779429100010 38.63796703736487359
0.800000000000011368684 94.82404321570712113 0.800000000000011368684 41.74764677136689528
1.007140329435344483500 104.72018483420235668 1.007140329435344483500 45.11994862529301997
1.267914553968893187630 115.39174231980297236 1.267914553968893187630 48.78734666421667043
1.596209851975103788391 126.90136969764320440 1.596209851975103788391 52.77438496450600525
2.009509145207672986544 139.30676925427255242 2.009509145207672986544 57.05349916574451896
2.529822128134725289783 152.64904763718172376 2.529822128134725289783 61.54420810375064832
3.184857364427998049905 166.93801981414998181 3.184857364427998049905 66.10855557554742745
4.009497869018190385759 182.13866984112004843 4.009497869018190385759 70.56433344277299113
5.009497869018204596614 197.62233647793547675 5.009497869018204596614 74.57890616940606776
6.009497869018190385759 210.75745835291419894 6.009497869018190385759 77.52750317140096570
7.009497869018190385759 222.13177198541097823 7.009497869018190385759 79.69230407700717933
8.009497869018204596614 232.12459122876930451 8.009497869018204596614 81.25460361413037447
9.009497869018190385759 241.00243938288147660 9.009497869018190385759 82.33552090930430722
10.009497869018190385759 248.96363412521151304 10.009497869018190385759 83.03667026430045439
11.009497869018204596614 256.15405204165864461 11.009497869018204596614 83.53312683454986143
12.009497869018190385759 262.68835953463377564 12.009497869018190385759 83.79295525104082287
13.009497869018190385759 268.65697558292697522 13.009497869018190385759 83.86168919774347330
14.009497869018204596614 274.13307125438973344 14.009497869018204596614 83.77301885595731790
15.009497869018190385759 279.17685829210677184 15.009497869018190385759 83.53110904434583972
16.009497869018190385759 283.83870008980238708 16.009497869018190385759 83.14488895669794033
17.009497869018190385759 288.15597703597808277 17.009497869018190385759 82.55641549583339156
18.009497869018204596614 292.16287651225127320 18.009497869018204596614 81.87547294979472667
19.009497869018190385759 295.88777855953560447 19.009497869018190385759 80.98079937006403384
20.009497869018190385759 299.35393747787765051 20.009497869018190385759 80.10033558959142397
21.009497869018204596614 302.58195845092939180 21.009497869018204596614 79.16034201666916204
22.009497869018190385759 305.59458053384508958 22.009497869018190385759 78.17506129259875536
23.009497869018190385759 308.41521585313120113 23.009497869018190385759 77.12023656243660241
24.009497869018204596614 311.05959188160181839 24.009497869018204596614 76.06224788182436214
25.009497869018190385759 313.54193814640547089 25.009497869018190385759 74.94702543396422811
26.009497869018190385759 315.87514765146772788 26.009497869018190385759 73.66458910783029523
27.009497869018204596614 318.06975772056472351 27.009497869018204596614 72.35363123052866285
28.009497869018190385759 320.12880641861295317 28.009497869018190385759 70.98952415281793549
29.009497869018190385759 322.05747084165312799 29.009497869018190385759 69.60720042820248921
30.009497869018190385759 323.86599065247014551 30.009497869018190385759 68.22195022709152568
31.009497869018190385759 325.55868448549625782 31.009497869018190385759 66.79909736783200458
32.009497869018190385759 327.15029078789217465 32.009497869018190385759 65.37045000114920867
33.009497869018190385759 328.65263388459015914 33.009497869018190385759 63.96574390317788783
34.009497869018190385759 330.07162991127967189 34.009497869018190385759 62.54936023770051179
35.009497869018190385759 331.41103824614464202 35.009497869018190385759 61.07615390751799112
36.009497869018190385759 332.67593682158167212 36.009497869018190385759 59.70537287694818218
37.009497869018190385759 333.86926590949281035 37.009497869018190385759 58.34403370345965101
38.009497869018190385759 334.99375013009841950 38.009497869018190385759 56.97080919191498083
39.009497869018190385759 336.05189145887936775 39.009497869018190385759 55.56973314408265452
40.009497869018190385759 337.04978690383370576 40.009497869018190385759 54.11331632751706877
41.009497869018190385759 337.99130112380680657 41.009497869018190385759 52.76727794554447115
42.009497869018190385759 338.87996901660153526 42.009497869018190385759 51.38664807146785307
43.009497869018190385759 339.71924259547552083 43.009497869018190385759 50.05166021390569853
44.009497869018190385759 340.51217694844302741 44.009497869018190385759 48.70632988168691924
46.009497869018190385759 341.96988717838337379 46.009497869018190385759 46.11121761443082789
48.009497869018190385759 343.27278564631131985 48.009497869018190385759 43.63059633658198067
50.009497869018218807469 344.43761499347220933 50.009497869018218807469 41.22908723055492430
52.009497869018190385759 345.48040755232648280 52.009497869018190385759 38.91900766958984548
54.009497869018190385759 346.41431378796295348 54.009497869018190385759 36.71902945751404701
56.009497869018190385759 347.25150276759603685 56.009497869018190385759 34.61022446950571663
58.009497869018190385759 348.00223709147451245 58.009497869018190385759 32.60162473610656519
60.009497869018190385759 348.67622280086760611 60.009497869018190385759 30.69070215378402366
62.009497869018190385759 349.28124755287495873 62.009497869018190385759 28.87013985914411407
64.009497869018190385759 349.82530137509644419 64.009497869018190385759 27.13954792316325282
66.009497869018218807469 350.31435424304726212 66.009497869018218807469 25.51479001766509924
68.009497869018190385759 350.75430290020437951 68.009497869018190385759 23.97886978786638679
70.009497869018190385759 351.15033690571186753 70.009497869018190385759 22.50570214563377647
72.009497869018190385759 351.50670728878787941 72.009497869018190385759 21.13476222212732836
74.009497869018218807469 351.82780846750080173 74.009497869018218807469 19.82841231578786889
76.009497869018190385759 352.11722599107571341 76.009497869018190385759 18.59306144045349285
78.009497869018190385759 352.37812578539546848 78.009497869018190385759 17.42271139823172632
80.009497869018218807469 352.61345175940527952 80.009497869018218807469 16.32423707804039736
82.009497869018190385759 352.82566475018558094 82.009497869018190385759 15.28070558969715442
84.009497869018190385759 353.01697248220978054 84.009497869018190385759 14.26304991795456090
86.009497869018218807469 353.18962038052234220 86.009497869018218807469 13.33119884840162861
88.009497869018190385759 353.34542789553995590 88.009497869018190385759 12.42294572132576747
91.009497869018190385759 353.55108705909907485 91.009497869018190385759 11.16634964862819324
94.009497869018190385759 353.72762421191271187 94.009497869018190385759 9.99755227232889787
97.009497869018190385759 353.87879142850744074 97.009497869018190385759 8.94150920247781400
99.504748934509137825444 353.98786741790604538 99.504748934509137825444 7.59929619430712844
nan nan nan nan

