Time Pressure difference Time.1 Pressure.1 difference.1
(hr) (psi) (hr) (psi)
0.000200000000006639311 0.36204377407777005 0.000200000000006639311 0.29019722908693951
0.000399999999999067768 0.67700677410358301 0.000399999999999067768 0.61859650957771495
0.000600000000019917934 0.96676974570894225 0.000600000000019917934 0.84920107008437584
0.000799999999998135536 1.23853206208339017 0.000799999999998135536 1.06321663084776152
0.001007140329448930061 1.50519236678441271 0.001007140329448930061 1.27051966814762873
0.001267914553963578328 1.82362192624902941 0.001267914553963578328 1.51371737441616916
0.001596209851982166583 2.20227588571033861 0.001596209851982166583 1.79580994631729629
0.002009509145210586212 2.65060939405677543 0.002009509145210586212 2.12125796315603266
0.002529822128153114136 3.17913110199362237 0.002529822128153114136 2.49475917738224728
0.003184857364431081805 3.79945859404129926 0.003184857364431081805 2.92126829772043761
0.004009497869020606231 4.52438087464278738 0.004009497869020606231 3.40604189572245275
0.005047658755856332391 5.36793430780801550 0.005047658755856332391 3.95471165537620184
0.006354625877790454069 6.34549859284081119 0.006354625877790454069 4.57338292009524938
0.007999999999995566213 7.47391774483295457 0.007999999999995566213 5.26875102997696487
0.010071403294347192059 8.77164916442705689 0.010071403294347192059 6.04823955544430270
0.012679145539706837553 10.25894760014906737 0.012679145539706837553 6.92019816670975274
0.015962098519764822413 11.95810438444491375 0.015962098519764822413 7.89420847768228828
0.020095091452077440408 13.89377088593413312 0.020095091452077440408 8.98143663180200491
0.025298221281346400247 16.09335819205545448 0.025298221281346400247 10.19471077660951330
0.031848573644282396344 18.58739354436699998 0.031848573644282396344 11.54778666458387448
0.040094978690177640601 21.40957816115883006 0.040094978690177640601 13.05341802969867082
0.050476587558421215363 24.59625029467095914 0.050476587558421215363 14.72044645200862512
0.063546258777947173257 28.18509695623231082 0.063546258777947173257 16.55105427419012187
0.079999999999998294697 32.21334459495252389 0.079999999999998294697 18.53957724579136368
0.100714032943528764008 36.71591486743712807 0.100714032943528764008 20.67312555385306183
0.126791455396883634421 41.72388961472382363 0.126791455396883634421 22.93497593514702615
0.159620985197506115583 47.26421251706202753 0.159620985197506115583 25.31025628177208375
0.200950914520774404082 53.36074834259097344 0.200950914520774404082 27.78671452258750563
0.252982212813464002465 60.03430983311221780 0.252982212813464002465 30.36050688429413213
0.318485736442795541734 67.30633509104944778 0.318485736442795541734 33.04434323592459322
0.400949786901833249431 75.20259428353301701 0.400949786901833249431 35.84868003572076844
0.504765875584169521062 83.74815044153673682 0.504765875584169521062 38.80398720972089421
0.635462587779429100010 92.98114914531723230 0.635462587779429100010 41.94518342260905541
0.800000000000011368684 102.94050620494301995 0.800000000000011368684 45.32103616098284959
1.007140329435344483500 113.68370796197334016 1.007140329435344483500 48.98199015689429814
1.267914553968893187630 125.26869729915981111 1.267914553968893187630 52.96329909267780778
1.596209851975103788391 137.76349111226403465 1.596209851975103788391 57.29160789466205728
2.009509145207672986544 151.23073071445037385 2.009509145207672986544 61.93699283128841415
2.529822128134725289783 165.71504127627244429 2.529822128134725289783 66.81208395396728861
3.184857364427998049905 181.22707787757411779 3.184857364427998049905 71.76711669996797127
4.009497869018190385759 197.72882738493200350 4.009497869018190385759 76.60428682722745464
5.009497869018204596614 214.53781830590074264 5.009497869018204596614 80.96248686449091281
6.009497869018190385759 228.79724080065841463 6.009497869018190385759 84.16346899609290233
7.009497869018190385759 241.14513868979892663 7.009497869018190385759 86.51356601261738888
8.009497869018204596614 251.99329319198338339 8.009497869018204596614 88.20959056231272655
9.009497869018190385759 261.63104066617609078 9.009497869018190385759 89.38302896208399773
10.009497869018190385759 270.27367378937361764 10.009497869018190385759 90.14419318880217702
11.009497869018204596614 278.07955545232249506 11.009497869018204596614 90.68314395399984562
12.009497869018190385759 285.17316692695106894 12.009497869018190385759 90.96521238108816476
13.009497869018190385759 291.65266660359503703 13.009497869018190385759 91.03982960924136592
14.009497869018204596614 297.59748862689491489 14.009497869018204596614 90.94356953047558534
15.009497869018190385759 303.07299856345616718 15.009497869018190385759 90.68095345106436866
16.009497869018190385759 308.13387066116331425 16.009497869018190385759 90.26167485904578314
17.009497869018190385759 312.82068488248137328 17.009497869018190385759 89.62283101844126065
18.009497869018204596614 317.17055487760052301 18.009497869018204596614 88.88360320228237299
19.009497869018190385759 321.21428987674005384 19.009497869018190385759 87.91235004683360899
20.009497869018190385759 324.97713463151643509 20.009497869018190385759 86.95652297826208610
21.009497869018204596614 328.48145802606109100 21.009497869018204596614 85.93607066527758320
22.009497869018190385759 331.75194546471698231 22.009497869018190385759 84.86645484791513638
23.009497869018190385759 334.81401303471449182 23.009497869018190385759 83.72134240598546739
24.009497869018204596614 337.68473440173886502 24.009497869018204596614 82.57279519529993195
25.009497869018190385759 340.37955706916676490 25.009497869018190385759 81.36211529365635897
26.009497869018190385759 342.91247761745972866 26.009497869018190385759 79.96990884357359164
27.009497869018204596614 345.29493531251284821 27.009497869018204596614 78.54673954044865525
28.009497869018190385759 347.53022826237730669 28.009497869018190385759 77.06587173166039406
29.009497869018190385759 349.62397669657542565 29.009497869018190385759 75.56522802226575664
30.009497869018190385759 351.58729674172121804 30.009497869018190385759 74.06140734465050457
31.009497869018190385759 353.42487668571618542 31.009497869018190385759 72.51676540975499563
32.009497869018190385759 355.15271651295182664 32.009497869018190385759 70.96583298663378514
33.009497869018190385759 356.78365265132958939 33.009497869018190385759 69.44089108486952000
34.009497869018190385759 358.32410762811150562 34.009497869018190385759 67.90327207433040257
35.009497869018190385759 359.77816260541800375 35.009497869018190385759 66.30396666369385628
36.009497869018190385759 361.15133016121603760 36.009497869018190385759 64.81585364512119440
37.009497869018190385759 362.44680223995044344 37.009497869018190385759 63.33799065928813121
38.009497869018190385759 363.66753667568099218 38.009497869018190385759 61.84722501001208883
39.009497869018190385759 364.81624960045360240 39.009497869018190385759 60.32622387249056573
40.009497869018190385759 365.89955989560240823 40.009497869018190385759 58.74514507371372218
41.009497869018190385759 366.92166301540606810 41.009497869018190385759 57.28389255048669071
42.009497869018190385759 367.88639642720835354 42.009497869018190385759 55.78508767675008073
43.009497869018190385759 368.79750761930534964 43.009497869018190385759 54.33583154745503663
44.009497869018190385759 369.65831317993809080 44.009497869018190385759 52.87534767949311032
46.009497869018190385759 371.24079610179404654 46.009497869018190385759 50.05810680481008745
48.009497869018190385759 372.65521615048419335 48.009497869018190385759 47.36515677457752105
50.009497869018218807469 373.91974905345625757 50.009497869018218807469 44.75809052168802538
52.009497869018190385759 375.05179943050058000 52.009497869018190385759 42.25027972481569094
54.009497869018190385759 376.06564336062785969 54.009497869018190385759 39.86199440064155652
56.009497869018190385759 376.97449152223367719 56.009497869018190385759 37.57268627169722919
58.009497869018190385759 377.78948494272810876 58.009497869018190385759 35.39216046508437330
60.009497869018190385759 378.52116045188131466 60.009497869018190385759 33.31767248427493655
62.009497869018190385759 379.17797229122129465 62.009497869018190385759 31.34127917902910454
64.009497869018190385759 379.76859439467676793 64.009497869018190385759 29.46255724435259182
66.009497869018218807469 380.29950773775482276 66.009497869018218807469 27.69872820289321425
68.009497869018190385759 380.77711379562896354 68.009497869018190385759 26.03134089705745779
70.009497869018190385759 381.20704632770394937 70.009497869018190385759 24.43207748586548078
72.009497869018190385759 381.59392022999935534 72.009497869018190385759 22.94379197391693026
74.009497869018218807469 381.94250606075246424 74.009497869018218807469 21.52562506098056616
76.009497869018190385759 382.25669627423661723 76.009497869018190385759 20.18453434036704763
78.009497869018190385759 382.53992778372787598 78.009497869018190385759 18.91400819849790338
80.009497869018218807469 382.79539648202666058 80.009497869018218807469 17.72150998033612979
82.009497869018190385759 383.02577384153761386 82.009497869018190385759 16.58865742514096198
84.009497869018190385759 383.23345655688746092 84.009497869018190385759 15.48389552679827119
86.009497869018218807469 383.42088225025395332 86.009497869018218807469 14.47228267467400187
88.009497869018190385759 383.59002610789303844 88.009497869018190385759 13.48628763066680492
91.009497869018190385759 383.81328866541031175 91.009497869018190385759 12.12213323024354850
94.009497869018190385759 384.00493651397619033 94.009497869018190385759 10.85329265472030613
97.009497869018190385759 384.16904288689744362 97.009497869018190385759 9.70685758932873455
99.504748934509137825444 384.28745523447003052 99.504748934509137825444 8.24975787273425354
nan nan nan nan

