Time Pressure difference Time.1 Pressure.1 difference.1
(hr) (psi) (hr) (psi)
0.000200000000006639311 0.53749575690007401 0.000200000000006639311 0.43083127087522555
0.000399999999999067768 1.00509467232301164 0.000399999999999067768 0.91837789498845368
0.000600000000019917934 1.43528123786019890 0.000600000000019917934 1.26073697327911183
0.000799999999998135536 1.83874375370841792 0.000799999999998135536 1.57846776733552296
0.001007140329448930061 2.23463174453378199 0.001007140329448930061 1.88623304578840290
0.001267914553963578328 2.70737716743125123 0.001267914553963578328 2.24728810201785123
0.001596209851982166583 3.26953266109304108 0.001596209851982166583 2.66608707414798607
0.002009509145210586212 3.93513548502275068 0.002009509145210586212 3.14925220683934093
0.002529822128153114136 4.71978694372899277 0.002529822128153114136 3.70375785565210558
0.003184857364431081805 5.64073468192285077 0.003184857364431081805 4.33695985738495793
0.004009497869020606231 6.71696545235429188 0.004009497869020606231 5.05666219903410230
0.005047658755856332391 7.96931785697651573 0.005047658755856332391 5.87122576528928519
0.006354625877790454069 9.42062483398674111 0.006354625877790454069 6.78971464291063942
0.007999999999995566213 11.09589326732892545 0.007999999999995566213 7.82206883681195464
0.010071403294347192059 13.02252529795709357 0.010071403294347192059 8.97930949385192534
0.012679145539706837553 15.23059143714438513 0.012679145539706837553 10.27383266288448027
0.015962098519764822413 17.75318573998360350 0.015962098519764822413 11.71986335532832157
0.020095091452077440408 20.62690600757914083 0.020095091452077440408 13.33397899952143817
0.025298221281346400247 23.89244716205156394 0.025298221281346400247 15.13522446065873872
0.031848573644282396344 27.59513041586793136 0.031848573644282396344 17.14402174049759964
0.040094978690177640601 31.78498911618195777 0.040094978690177640601 19.37930522870648886
0.050476587558421215363 36.51597159131918602 0.050476587558421215363 21.85420127105895816
0.063546258777947173257 41.84402855809874211 0.063546258777947173257 24.57194980706687204
0.079999999999998294697 47.82442697558336420 0.079999999999998294697 27.52414160336718041
0.100714032943528764008 54.50901207242588953 0.100714032943528764008 30.69164024533569801
0.126791455396883634421 61.94392842801305932 0.126791455396883634421 34.04961811910289526
0.159620985197506115583 70.16917704456132299 0.159620985197506115583 37.57599586447701512
0.200950914520774404082 79.22018792400045584 0.200950914520774404082 41.25258386814914502
0.252982212813464002465 89.12785998300505241 0.252982212813464002465 45.07367560514435922
0.318485736442795541734 99.92402055825033358 0.318485736442795541734 49.05814034256496825
0.400949786901833249431 111.64692843632209929 0.400949786901833249431 53.22150189918544072
0.504765875584169521062 124.33379257858916844 0.504765875584169521062 57.60899639597024446
0.635462587779429100010 138.04124450035558880 0.635462587779429100010 62.27246461971959235
0.800000000000011368684 152.82705921195386622 0.800000000000011368684 67.28430753130531627
1.007140329435344483500 168.77658182046812385 1.007140329435344483500 72.71941615600462683
1.267914553968893187630 185.97583522106032206 1.267914553968893187630 78.63012865297550036
1.596209851975103788391 204.52579834359198685 1.596209851975103788391 85.05600248976752198
2.009509145207672986544 224.51946944529939287 2.009509145207672986544 91.95261243414356045
2.529822128134725289783 246.02309974092753464 2.529822128134725289783 99.19024771627452708
3.184857364427998049905 269.05250792593693632 3.184857364427998049905 106.54656556226015596
4.009497869018190385759 293.55125911762979740 4.009497869018190385759 113.72790275119155012
5.009497869018204596614 318.50614563876035845 5.009497869018204596614 120.19815357574420034
6.009497869018190385759 339.67590365020822674 6.009497869018190385759 124.95038089419946914
7.009497869018190385759 358.00778282408612085 7.009497869018190385759 128.43937108027046179
8.009497869018204596614 374.11311989271376888 8.009497869018204596614 130.95731521943349662
9.009497869018190385759 388.42146806593842712 9.009497869018190385759 132.69941992063237990
10.009497869018190385759 401.25245416422399103 10.009497869018190385759 133.82945604183706223
11.009497869018204596614 412.84118617152489605 11.009497869018204596614 134.62959063939979387
12.009497869018190385759 423.37247089924272814 12.009497869018190385759 135.04835376576932049
13.009497869018190385759 432.99203580379878531 13.009497869018190385759 135.15913165064293366
14.009497869018204596614 441.81781003839017785 14.009497869018204596614 135.01622245678299805
15.009497869018190385759 449.94683632882339452 15.009497869018190385759 134.62633858504170803
16.009497869018190385759 457.46028490465010918 16.009497869018190385759 134.00387113689103558
17.009497869018190385759 464.41840140245312796 17.009497869018190385759 133.05543374276277291
18.009497869018204596614 470.87628531828386258 18.009497869018204596614 131.95796475415767190
19.009497869018190385759 476.87967650931415164 19.009497869018190385759 130.51602737722220127
20.009497869018190385759 482.46605372217442209 20.009497869018190385759 129.09699180618909509
21.009497869018204596614 487.66862614638296236 21.009497869018204596614 127.58201260306596225
22.009497869018190385759 492.52404211300284942 22.009497869018190385759 125.99404450498167307
23.009497869018190385759 497.07003473615299072 23.009497869018190385759 124.29399295657842117
24.009497869018204596614 501.33195184258153176 24.009497869018204596614 122.58884209763758122
25.009497869018190385759 505.33272703345522814 25.009497869018190385759 120.79144808981288861
26.009497869018190385759 509.09313984745938342 26.009497869018190385759 118.72455697545925091
27.009497869018204596614 512.63017319473055977 27.009497869018204596614 116.61169793312762977
28.009497869018190385759 515.94872349722163563 28.009497869018190385759 114.41317880161888354
29.009497869018190385759 519.05713463414667785 29.009497869018190385759 112.18530006382530928
30.009497869018190385759 521.97190977809384549 30.009497869018190385759 109.95270475013496991
31.009497869018190385759 524.70000923340944610 31.009497869018190385759 107.65950556986703646
32.009497869018190385759 527.26518682307460040 32.009497869018190385759 105.35696743400247044
33.009497869018190385759 529.68649970543549443 33.009497869018190385759 103.09301522599858458
34.009497869018190385759 531.97348286327337519 34.009497869018190385759 100.81024238727515296
35.009497869018190385759 534.13219525265901666 35.009497869018190385759 98.43588896994549486
36.009497869018190385759 536.17082093165151946 36.009497869018190385759 96.22661348852608398
37.009497869018190385759 538.09409871008017490 37.009497869018190385759 94.03255536340469689
38.009497869018190385759 539.90641983389559755 38.009497869018190385759 91.81934174563333784
39.009497869018190385759 541.61181671451959119 39.009497869018190385759 89.56124005685137490
40.009497869018190385759 543.22011584500967274 40.009497869018190385759 87.21394614789807065
41.009497869018190385759 544.73754586133361499 41.009497869018190385759 85.04454817110716647
42.009497869018190385759 546.16980392654772913 42.009497869018190385759 82.81939939702127162
43.009497869018190385759 547.52245361943028001 43.009497869018190385759 80.66781145122170926
44.009497869018190385759 548.80041879790815074 44.009497869018190385759 78.49955463186284987
46.009497869018190385759 551.14979728958655869 46.009497869018190385759 74.31703548714111207
48.009497869018190385759 553.24966705418034962 48.009497869018190385759 70.31904044225738915
50.009497869018218807469 555.12701205628502521 50.009497869018218807469 66.44854977450606270
52.009497869018190385759 556.80767146220478025 52.009497869018190385759 62.72541528376483910
54.009497869018190385759 558.31283975847065904 54.009497869018190385759 59.17973014864477221
56.009497869018190385759 559.66212972147002347 56.009497869018190385759 55.78098808028896372
58.009497869018190385759 560.87208149189632422 58.009497869018190385759 52.54374592124064236
60.009497869018190385759 561.95833820933148672 60.009497869018190385759 49.46392914973124277
62.009497869018190385759 562.93345117081310036 62.009497869018190385759 46.52974524271243695
64.009497869018190385759 563.81029783209703510 64.009497869018190385759 43.74056575507730571
66.009497869018218807469 564.59849994912838156 66.009497869018218807469 41.12195802429531710
68.009497869018190385759 565.30756125043376414 68.009497869018190385759 38.64652917793914355
70.009497869018190385759 565.94584570189897477 70.009497869018190385759 36.27223811363106165
72.009497869018190385759 566.52020464915290177 72.009497869018190385759 34.06270654589206259
74.009497869018218807469 567.03772053634793338 74.009497869018218807469 31.95727412899422859
76.009497869018190385759 567.50417216098207973 76.009497869018190385759 29.96627021300646732
78.009497869018190385759 567.92466201738056952 78.009497869018190385759 28.08002755623150648
80.009497869018218807469 568.30393477716268080 80.009497869018218807469 26.30962635542210037
82.009497869018190385759 568.64595654935965285 82.009497869018190385759 24.62777602347850703
84.009497869018190385759 568.95428550368671949 84.009497869018190385759 22.98762951286204625
86.009497869018218807469 569.23254057153087615 86.009497869018218807469 21.48577350932370678
88.009497869018190385759 569.48365414479496849 88.009497869018190385759 20.02195009783610047
91.009497869018190385759 569.81511317249373860 91.009497869018190385759 17.99670548797696057
94.009497869018190385759 570.09963651690304687 94.009497869018190385759 16.11296524893091586
97.009497869018190385759 570.34327136285548931 97.009497869018190385759 14.41095011338804177
99.504748934509137825444 570.51906815579002341 99.504748934509137825444 12.24771745721316130
nan nan nan nan

