Time Pressure difference Time.1 Pressure.1 difference.1
(hr) (psi) (hr) (psi)
0.000200000000006639311 0.72199883407432219 0.000200000000006639311 0.57872024339068517
0.000399999999999067768 1.35010773989503008 0.000399999999999067768 1.23362419313863536
0.000600000000019917934 1.92796197365417910 0.000600000000019917934 1.69350290322595742
0.000799999999998135536 2.46991874688553015 0.000799999999998135536 2.12029931959447859
0.001007140329448930061 3.00170093145276162 0.001007140329448930061 2.53370941513286763
0.001267914553963578328 3.63672295676969926 0.001267914553963578328 3.01870176397993717
0.001596209851982166583 4.39184633361850274 0.001596209851982166583 3.58125945063660822
0.002009509145210586212 5.28592681084014604 0.002009509145210586212 4.23027789960154976
0.002529822128153114136 6.33992106301420488 0.002529822128153114136 4.97512551335652020
0.003184857364431081805 7.57699723465543595 0.003184857364431081805 5.82568312449248893
0.004009497869020606231 9.02265955193186642 0.004009497869020606231 6.79243354973881353
0.005047658755856332391 10.70489976384021524 0.005047658755856332391 7.88660766658677304
0.006354625877790454069 12.65438853995369506 0.006354625877790454069 9.12038093872841138
0.007999999999995566213 14.90471673344571890 0.007999999999995566213 10.50710541939636933
0.010071403294347192059 17.49269266059780392 0.010071403294347192059 12.06158542114565613
0.012679145539706837553 20.45870896414342965 0.012679145539706837553 13.80047211322695055
0.015962098519764822413 23.84721970513341560 0.015962098519764822413 15.74287344491641072
0.020095091452077440408 27.70738540137249473 0.020095091452077440408 17.91105728303591960
0.025298221281346400247 32.09387008684905851 0.025298221281346400247 20.33060591412320051
0.031848573644282396344 37.06755212597803251 0.031848573644282396344 23.02895148302592077
0.040094978690177640601 42.69563952523404993 0.040094978690177640601 26.03152787845677096
0.050476587558421215363 49.05059914533420340 0.050476587558421215363 29.35596725140950980
0.063546258777947173257 56.20758758387097487 0.063546258777947173257 33.00662169679837632
0.079999999999998294697 64.24084297108801422 0.079999999999998294697 36.97219539208777661
0.100714032943528764008 73.22000714910058150 0.100714032943528764008 41.22698307566465559
0.126791455396883634421 83.20706448167040037 0.126791455396883634421 45.73763470143743604
0.159620985197506115583 94.25574688498716114 0.159620985197506115583 50.47449185422625106
0.200950914520774404082 106.41364621397470103 0.200950914520774404082 55.41312107677546805
0.252982212813464002465 119.72226787872571663 0.252982212813464002465 60.54585699810195365
0.318485736442795541734 134.22436440272747404 0.318485736442795541734 65.89804603010345829
0.400949786901833249431 149.97132744619949563 0.400949786901833249431 71.49054076354315157
0.504765875584169521062 167.01313847667998402 0.504765875584169521062 77.38410526246261156
0.635462587779429100010 185.42586858402685834 0.635462587779429100010 83.64837540239534519
0.800000000000011368684 205.28712487408827769 0.800000000000011368684 90.38060480565233945
1.007140329435344483500 226.71154837801219628 1.007140329435344483500 97.68139190903728775
1.267914553968893187630 249.81469057543986878 1.267914553968893187630 105.62104069059014932
1.596209851975103788391 274.73219285272654133 1.596209851975103788391 114.25268728223952053
2.009509145207672986544 301.58897644400974514 2.009509145207672986544 123.51665685778094428
2.529822128134725289783 330.47403423748943396 2.529822128134725289783 133.23871357743095700
3.184857364427998049905 361.40861492123912058 3.184857364427998049905 143.12019234205152429
4.009497869018190385759 394.31691153495091839 4.009497869018190385759 152.76662584583630178
5.009497869018204596614 427.83791842926746085 5.009497869018204596614 161.45788245860978805
6.009497869018190385759 456.27449751977457026 6.009497869018190385759 167.84137951720836668
7.009497869018190385759 480.89905542561831453 7.009497869018190385759 172.52801529823892679
8.009497869018204596614 502.53277892324376808 8.009497869018204596614 175.91027964061211719
9.009497869018190385759 521.75267148235502646 9.009497869018190385759 178.25038660323289719
10.009497869018190385759 538.98807638380856133 10.009497869018190385759 179.76832372459202247
11.009497869018204596614 554.55480577703542622 11.009497869018204596614 180.84311592364969101
12.009497869018190385759 568.70110404470813137 12.009497869018190385759 181.40562545997772759
13.009497869018190385759 581.62272166909247062 13.009497869018190385759 181.55442943227555475
14.009497869018204596614 593.47806866555777106 14.009497869018204596614 181.36246462135227375
15.009497869018190385759 604.39749905827704879 15.009497869018190385759 180.83874755529566869
16.009497869018190385759 614.49004591466609781 16.009497869018190385759 180.00260928621244716
17.009497869018190385759 623.83663504448691128 17.009497869018190385759 178.72860724254533693
18.009497869018204596614 632.51127963090721096 18.009497869018204596614 177.25441638609004258
19.009497869018190385759 640.57542038880671953 19.009497869018190385759 175.31751345878163306
20.009497869018190385759 648.07940117862028728 20.009497869018190385759 173.41137370857265410
21.009497869018204596614 655.06783071735640078 21.009497869018204596614 171.37635630748627591
22.009497869018190385759 661.58993739790673771 22.009497869018190385759 169.24329553324611197
23.009497869018190385759 667.69640676345943575 23.009497869018190385759 166.95967706732102442
24.009497869018204596614 673.42128764346773551 24.009497869018204596614 164.66920887985776289
25.009497869018190385759 678.79538592447283918 25.009497869018190385759 162.25483376831081728
26.009497869018190385759 683.84661401789560387 26.009497869018190385759 159.47845282843425707
27.009497869018204596614 688.59778445976121475 27.009497869018204596614 156.64032481431780752
28.009497869018190385759 693.05547443862553791 28.009497869018190385759 153.68713266486889779
29.009497869018190385759 697.23089198913214659 29.009497869018190385759 150.69450280594148239
30.009497869018190385759 701.14620523300948207 30.009497869018190385759 147.69553733923569894
31.009497869018190385759 704.81076369824552330 31.009497869018190385759 144.61516486522293690
32.009497869018190385759 708.25647504602125082 32.009497869018190385759 141.52224770603700676
33.009497869018190385759 711.50893807582463069 33.009497869018190385759 138.48116164424939711
34.009497869018190385759 714.58096078913786187 34.009497869018190385759 135.41479450207813784
35.009497869018190385759 717.48068196503550098 35.009497869018190385759 132.22541044278946742
36.009497869018190385759 720.21909495611737384 36.009497869018190385759 129.25776967305898779
37.009497869018190385759 722.80256523620892040 37.009497869018190385759 126.31056983400345928
38.009497869018190385759 725.23699140900225757 38.009497869018190385759 123.33763910650488071
39.009497869018190385759 727.52779006859691435 39.009497869018190385759 120.30441183802444982
40.009497869018190385759 729.68816079180703582 40.009497869018190385759 117.15137584892525524
41.009497869018190385759 731.72647028264645996 41.009497869018190385759 114.23730110548980576
42.009497869018190385759 733.65037133656744572 42.009497869018190385759 111.24833830921120637
43.009497869018190385759 735.46733731003780576 43.009497869018190385759 108.35818714367475479
44.009497869018190385759 737.18398224537656915 44.009497869018190385759 105.44564527621992056
46.009497869018190385759 740.33981837992382680 46.009497869018190385759 99.82741683959241641
48.009497869018190385759 743.16049836163858799 48.009497869018190385759 94.45705302930170433
50.009497869018218807469 745.68226878545033287 50.009497869018218807469 89.25796129036631044
52.009497869018190385759 747.93983847967126621 52.009497869018190385759 84.25680783583436551
54.009497869018190385759 749.96167724032909518 54.009497869018190385759 79.49401575666402664
56.009497869018190385759 751.77413020876213068 56.009497869018190385759 74.92860704567313235
58.009497869018190385759 753.39941516463272819 58.009497869018190385759 70.58013538902402217
60.009497869018190385759 754.85854497807872576 60.009497869018190385759 66.44312762729443023
62.009497869018190385759 756.16837935768546686 62.009497869018190385759 62.50174328587149830
64.009497869018190385759 757.34621612938417456 64.009497869018190385759 58.75513819691084194
66.009497869018218807469 758.40497985394574698 66.009497869018218807469 55.23765605076973628
68.009497869018190385759 759.35743655012936415 68.009497869018190385759 51.91250098124726975
70.009497869018190385759 760.21482123428643263 70.009497869018190385759 48.72320067854327164
72.009497869018190385759 760.98633707405645055 72.009497869018190385759 45.75521591721511072
74.009497869018218807469 761.68149766346220986 74.009497869018218807469 42.92706382353240002
76.009497869018190385759 762.30806545458347045 76.009497869018190385759 40.25261944415505866
78.009497869018190385759 762.87289444562645713 78.009497869018190385759 37.71889711892755059
80.009497869018218807469 763.38235798434936896 80.009497869018218807469 35.34078048001647687
82.009497869018190385759 763.84178360322016488 82.009497869018190385759 33.08161105744456876
84.009497869018190385759 764.25595086440819159 84.009497869018190385759 30.87846088709578041
86.009497869018218807469 764.62972094906410803 86.009497869018218807469 28.86107141084026750
88.009497869018190385759 764.96703283439433108 88.009497869018190385759 26.89476975577206730
91.009497869018190385759 765.41226989621247867 91.009497869018190385759 24.17433107646646562
94.009497869018190385759 765.79445993267950143 94.009497869018190385759 21.64397015950953573
97.009497869018190385759 766.12172591098590146 97.009497869018190385759 19.35771407718056736
99.504748934509137825444 766.35786745797190633 99.504748934509137825444 16.45192098851042317
nan nan nan nan

