Time Pressure difference Time.1 Pressure.1 difference.1
(hr) (psi) (hr) (psi)
0.000200000000006639311 0.72965745237212121 0.000200000000006639311 0.58485903092906266
0.000399999999999067768 1.36442903703952889 0.000399999999999067768 1.24670988853354858
0.000600000000019917934 1.94841287212109870 0.000600000000019917934 1.71146677201620379
0.000799999999998135536 2.49611846358344813 0.000799999999998135536 2.14279044063164248
0.001007140329448930061 3.03354153921166247 0.001007140329448930061 2.56058579272829778
0.001267914553963578328 3.67529957444035160 0.001267914553963578328 3.05072270843874094
0.001596209851982166583 4.43843293889314339 0.001596209851982166583 3.61924773796255073
0.002009509145210586212 5.34199739417596220 0.002009509145210586212 4.27515066420677314
0.002529822128153114136 6.40717191324868462 0.002529822128153114136 5.02789926518576014
0.003184857364431081805 7.65737039722169488 0.003184857364431081805 5.88747918463657527
0.004009497869020606231 9.11836760889546305 0.004009497869020606231 6.86448443599448144
0.005047658755856332391 10.81845222035153853 0.005047658755856332391 7.97026502852742347
0.006354625877790454069 12.78862024095609407 0.006354625877790454069 9.21712557742273475
0.007999999999995566213 15.06281883958641643 0.007999999999995566213 10.61855976810742064
0.010071403294347192059 17.67824677753760554 0.010071403294347192059 12.18952895020313143
0.012679145539706837553 20.67572516337735422 0.012679145539706837553 13.94686092059965787
0.015962098519764822413 24.10017960557359729 0.015962098519764822413 15.90986631655968786
0.020095091452077440408 28.00129209319033308 0.020095091452077440408 18.10104921178557902
0.025298221281346400247 32.43430651014253385 0.025298221281346400247 20.54626325747455695
0.031848573644282396344 37.46074698941657033 0.031848573644282396344 23.27323158554596461
0.040094978690177640601 43.14853444787394920 0.040094978690177640601 26.30765787523885990
0.050476587558421215363 49.57090444002916030 0.050476587558421215363 29.66736131097123064
0.063546258777947173257 56.80381078871434397 0.063546258777947173257 33.35674015259855452
0.079999999999998294697 64.92227910675046587 0.079999999999998294697 37.36437875690259602
0.100714032943528764008 73.99668996360405515 0.100714032943528764008 41.66429919315000774
0.126791455396883634421 84.08968522352033403 0.126791455396883634421 46.22279765391169803
0.159620985197506115583 95.25556676515577692 0.159620985197506115583 51.00990112172527802
0.200950914520774404082 107.54243127506796895 0.200950914520774404082 56.00091696090712645
0.252982212813464002465 120.99222443288770990 0.252982212813464002465 61.18809848988509259
0.318485736442795541734 135.64815226042273366 0.318485736442795541734 66.59706098317109024
0.400949786901833249431 151.56215155604346023 0.400949786901833249431 72.24887822583723107
0.504765875584169521062 168.78473396678941754 0.504765875584169521062 78.20495883805287463
0.635462587779429100010 187.39277750825473845 0.635462587779429100010 84.53567735941207673
0.800000000000011368684 207.46471250534668229 0.800000000000011368684 91.33931903213468217
1.007140329435344483500 229.11639604643858092 1.007140329435344483500 98.71754939312542376
1.267914553968893187630 252.46460532599900262 1.267914553968893187630 106.74141817139680199
1.596209851975103788391 277.64642054933210602 1.596209851975103788391 115.46462514154968915
2.009509145207672986544 304.78808805527694403 2.009509145207672986544 124.82686247536587132
2.529822128134725289783 333.97954472602594933 2.529822128134725289783 134.65204612261101147
3.184857364427998049905 365.24226464557244753 3.184857364427998049905 144.63834288762777192
4.009497869018190385759 398.49963672963212957 4.009497869018190385759 154.38710114410457663
5.009497869018204596614 432.37621843189225501 5.009497869018204596614 163.17055044997400159
6.009497869018190385759 461.11443915209622446 6.009497869018190385759 169.62176059212572454
7.009497869018190385759 486.00020259021022184 7.009497869018190385759 174.35810996389045613
8.009497869018204596614 507.86340627922800195 8.009497869018204596614 177.77625174866102498
9.009497869018190385759 527.28717426567800430 9.009497869018190385759 180.14118144666159083
10.009497869018190385759 544.70540409858381281 10.009497869018190385759 181.67522011897051470
11.009497869018204596614 560.43725791160375138 11.009497869018204596614 182.76141319959970133
12.009497869018190385759 574.73361334508592790 12.009497869018190385759 183.32988956803919223
13.009497869018190385759 587.79229730878387272 13.009497869018190385759 183.48027198170183283
14.009497869018204596614 599.77340015574213794 14.009497869018204596614 183.28627089988157195
15.009497869018190385759 610.80865864327324743 15.009497869018190385759 182.75699849368356809
16.009497869018190385759 621.00826240942149070 16.009497869018190385759 181.91199086976919830
17.009497869018190385759 630.45399568623167852 17.009497869018190385759 180.62447482178160385
18.009497869018204596614 639.22065675331805323 18.009497869018204596614 179.13464645383061224
19.009497869018190385759 647.37033805927626418 19.009497869018190385759 177.17719778669541597
20.009497869018190385759 654.95391748813312915 20.009497869018190385759 175.25083861772819205
21.009497869018204596614 662.01647694483074247 21.009497869018204596614 173.19423472540563580
22.009497869018190385759 668.60776701350653184 22.009497869018190385759 171.03854746272125453
23.009497869018190385759 674.77901088534758856 23.009497869018190385759 168.73070546437071471
24.009497869018204596614 680.56461856350460948 24.009497869018204596614 166.41594108591215218
25.009497869018190385759 685.99572270862825007 25.009497869018190385759 163.97595543798433937
26.009497869018190385759 691.10053181364958164 26.009497869018190385759 161.17012397704831983
27.009497869018204596614 695.90210039906435213 27.009497869018204596614 158.30189045844267071
28.009497869018190385759 700.40707542109885253 28.009497869018190385759 155.31737225919249568
29.009497869018190385759 704.62678380386739718 29.009497869018190385759 152.29299801410482473
30.009497869018190385759 708.58362881793038923 30.009497869018190385759 149.26222095614176055
31.009497869018190385759 712.28705916659725972 31.009497869018190385759 146.14917336427544114
32.009497869018190385759 715.76932097225676443 32.009497869018190385759 143.02344801921577755
33.009497869018190385759 719.05628457421812527 33.009497869018190385759 139.95010357104470700
34.009497869018190385759 722.16089383511712185 34.009497869018190385759 136.85120987288127026
35.009497869018190385759 725.09137386630402489 35.009497869018190385759 133.62799435298299500
36.009497869018190385759 727.85883463260472581 36.009497869018190385759 130.62887426939809643
37.009497869018190385759 730.46970912974620660 37.009497869018190385759 127.65041194410376590
38.009497869018190385759 732.92995853098784664 38.009497869018190385759 124.64594578940898373
39.009497869018190385759 735.24505688706813089 39.009497869018190385759 121.58054349686561579
40.009497869018190385759 737.42834378959867081 40.009497869018190385759 118.39406161009996765
41.009497869018190385759 739.48827469258776546 41.009497869018190385759 115.44907575559626878
42.009497869018190385759 741.43258356868147985 42.009497869018190385759 112.42840747160400383
43.009497869018190385759 743.26882304813852897 43.009497869018190385759 109.50759896487092249
44.009497869018190385759 745.00367733187533759 44.009497869018190385759 106.56416224636303980
46.009497869018190385759 748.19298906669268945 46.009497869018190385759 100.88633832969416915
48.009497869018190385759 751.04358947251421341 48.009497869018190385759 95.45900826876393808
50.009497869018218807469 753.59210963081181944 50.009497869018218807469 90.20476705140200124
52.009497869018190385759 755.87362654454727817 52.009497869018190385759 85.15056375309008274
54.009497869018190385759 757.91691200372690673 54.009497869018190385759 80.33725025360067207
56.009497869018190385759 759.74859060634787511 56.009497869018190385759 75.72341387065132778
58.009497869018190385759 761.39111580765199960 58.009497869018190385759 71.32881570655464998
60.009497869018190385759 762.86572337225311458 60.009497869018190385759 67.14792454523102094
62.009497869018190385759 764.18945184846131724 62.009497869018190385759 63.16473188388942361
64.009497869018190385759 765.37978254927156740 64.009497869018190385759 59.37838460015676390
66.009497869018218807469 766.44977713301352651 66.009497869018218807469 55.82359068583094341
68.009497869018190385759 767.41233703426757984 68.009497869018190385759 52.46316396176194985
70.009497869018190385759 768.27881644506487646 70.009497869018190385759 49.24003308689812286
72.009497869018190385759 769.05851615584481351 72.009497869018190385759 46.24056536281720042
74.009497869018218807469 769.76105067628566303 74.009497869018218807469 43.38241358443775653
76.009497869018190385759 770.39426479884616583 76.009497869018190385759 40.67959997827821184
78.009497869018190385759 770.96508522566693955 78.009497869018190385759 38.11900113851116600
80.009497869018218807469 771.47995290993071649 80.009497869018218807469 35.71565857575435388
82.009497869018190385759 771.94425189602191040 82.009497869018190385759 33.43252496451486167
84.009497869018190385759 772.36281244541919477 84.009497869018190385759 31.20600483093189936
86.009497869018218807469 772.74054730435796046 86.009497869018218807469 29.16721585203529443
88.009497869018190385759 773.08143723283046711 88.009497869018190385759 27.18005660949771496
91.009497869018190385759 773.53139715644226726 91.009497869018190385759 24.43076081787546272
94.009497869018190385759 773.91764128201361927 94.009497869018190385759 21.87355904259015915
97.009497869018190385759 774.24837874128570547 97.009497869018190385759 19.56305144926252382
99.504748934509137825444 774.48702516485491287 99.504748934509137825444 16.62643509735672609
nan nan nan nan

