Time Pressure difference Time.1 Pressure.1 difference.1
(hr) (psi) (hr) (psi)
0.000200000000006639311 0.28963501926221608 0.000200000000006639311 0.23215778326955161
0.000399999999999067768 0.54160541928286643 0.000399999999999067768 0.49487720766217197
0.000600000000019917934 0.77341579656715376 0.000600000000019917934 0.67936085606750074
0.000799999999998135536 0.99082564966671227 0.000799999999998135536 0.85057330467820924
0.001007140329448930061 1.20415389342752999 0.001007140329448930061 1.01641573451810308
0.001267914553963578328 1.45889754099922353 0.001267914553963578328 1.21097389953293533
0.001596209851982166583 1.76182070856827067 0.001596209851982166583 1.43664795705383708
0.002009509145210586212 2.12048751524542034 0.002009509145210586212 1.69700637052482617
0.002529822128153114136 2.54330488159489754 0.002529822128153114136 1.99580734190579800
0.003184857364431081805 3.03956687523303870 0.003184857364431081805 2.33701463817635036
0.004009497869020606231 3.61950469971422972 0.004009497869020606231 2.72483351657796202
0.005047658755856332391 4.29434744624641240 0.005047658755856332391 3.16376932430096192
0.006354625877790454069 5.07639887427264913 0.006354625877790454069 3.65870633607619933
0.007999999999995566213 5.97913419586636330 0.007999999999995566213 4.21500082398157172
0.010071403294347192059 7.01731933154164622 0.010071403294347192059 4.83859164435544109
0.012679145539706837553 8.20715808011925496 0.012679145539706837553 5.53615853336780273
0.015962098519764822413 9.56648350755593313 0.015962098519764822413 6.31536678214583080
0.020095091452077440408 11.11501670874730863 0.020095091452077440408 7.18514930544160357
0.025298221281346400247 12.87468655364436643 0.025298221281346400247 8.15576862128761171
0.031848573644282396344 14.86991483549359927 0.031848573644282396344 9.23822933166709959
0.040094978690177640601 17.12766252892706476 0.040094978690177640601 10.44273442375893879
0.050476587558421215363 19.67700023573676660 0.050476587558421215363 11.77635716160689938
0.063546258777947173257 22.54807756498584936 0.063546258777947173257 13.24084341935209785
0.079999999999998294697 25.77067567596202124 0.079999999999998294697 14.83166179663309059
0.100714032943528764008 29.37273189394970174 0.100714032943528764008 16.53850044308244804
0.126791455396883634421 33.37911169177906601 0.126791455396883634421 18.34798074811762447
0.159620985197506115583 37.81137001364962202 0.159620985197506115583 20.24820502541766842
0.200950914520774404082 42.68859867407278585 0.200950914520774404082 22.22937161807000450
0.252982212813464002465 48.02744786648977993 0.252982212813464002465 24.28840550743530358
0.318485736442795541734 53.84506807283955965 0.318485736442795541734 26.43547458873967315
0.400949786901833249431 60.16207542682641218 0.400949786901833249431 28.67894402857661262
0.504765875584169521062 66.99852035322939514 0.504765875584169521062 31.04318976777670969
0.635462587779429100010 74.38491931625380005 0.635462587779429100010 33.55614673808724291
0.800000000000011368684 82.35240496395441312 0.800000000000011368684 36.25682892878628394
1.007140329435344483500 90.94696636957866076 1.007140329435344483500 39.18559212551544135
1.267914553968893187630 100.21495783932785173 1.267914553968893187630 42.37063927414224196
1.596209851975103788391 110.21079288981121636 1.596209851975103788391 45.83328631572963729
2.009509145207672986544 120.98458457156030477 2.009509145207672986544 49.54959426503072706
2.529822128134725289783 132.57203302101794407 2.529822128134725289783 53.44966716317383515
3.184857364427998049905 144.98166230205927718 3.184857364427998049905 57.41369335997438128
4.009497869018190385759 158.18306190794558574 4.009497869018190385759 61.28342946178197082
5.009497869018204596614 171.63025464472059411 5.009497869018204596614 64.76998949159273877
6.009497869018190385759 183.03779264052673170 6.009497869018190385759 67.33077519687432755
7.009497869018190385759 192.91611095183915836 7.009497869018190385759 69.21085281009392531
8.009497869018204596614 201.59463455358670103 8.009497869018204596614 70.56767244985017840
9.009497869018190385759 209.30483253294087831 9.009497869018190385759 71.50642316966720102
10.009497869018190385759 216.21893903149893390 10.009497869018190385759 72.11535455104173309
11.009497869018204596614 222.46364436185800173 11.009497869018204596614 72.54651516319987081
12.009497869018190385759 228.13853354156086084 12.009497869018190385759 72.77216990487052328
13.009497869018190385759 233.32213328287602394 13.009497869018190385759 72.83186368739308136
14.009497869018204596614 238.07799090151593191 14.009497869018204596614 72.75485562438046827
15.009497869018190385759 242.45839885076492237 15.009497869018190385759 72.54476276085149777
16.009497869018190385759 246.50709652893064572 16.009497869018190385759 72.20933988723662367
17.009497869018190385759 250.25654790598514410 17.009497869018190385759 71.69826481475300284
18.009497869018204596614 253.73644390208042410 18.009497869018204596614 71.10688256182589839
19.009497869018190385759 256.97143190139206581 19.009497869018190385759 70.32988003746689287
20.009497869018190385759 259.98170770521318218 20.009497869018190385759 69.56521838260967172
21.009497869018204596614 262.78516642084883870 21.009497869018204596614 68.74885653222207793
22.009497869018190385759 265.40155637177360859 22.009497869018190385759 67.89316387833210342
23.009497869018190385759 267.85121042777154798 23.009497869018190385759 66.97707392478837107
24.009497869018204596614 270.14778752139108065 24.009497869018204596614 66.05823615623994272
25.009497869018190385759 272.30364565533341192 25.009497869018190385759 65.08969223492508149
26.009497869018190385759 274.32998209396777156 26.009497869018190385759 63.97592707485886621
27.009497869018204596614 276.23594825001026720 27.009497869018204596614 62.83739163235892278
28.009497869018190385759 278.02418260990185672 28.009497869018190385759 61.65269738532830957
29.009497869018190385759 279.69918135726032915 29.009497869018190385759 60.45218241781260105
30.009497869018190385759 281.26983739337703128 30.009497869018190385759 59.24912587572040223
31.009497869018190385759 282.73990134857291423 31.009497869018190385759 58.01341232780399793
32.009497869018190385759 284.12217321036143858 32.009497869018190385759 56.77266638930703380
33.009497869018190385759 285.42692212106368288 33.009497869018190385759 55.55271286789561458
34.009497869018190385759 286.65928610248926134 34.009497869018190385759 54.32261765946432774
35.009497869018190385759 287.82253008433440300 35.009497869018190385759 53.04317333095507792
36.009497869018190385759 288.92106412897288692 36.009497869018190385759 51.85268291609695979
37.009497869018190385759 289.95744179196032064 37.009497869018190385759 50.67039252743050781
38.009497869018190385759 290.93402934054483921 38.009497869018190385759 49.47778000800966680
39.009497869018190385759 291.85299968036292739 39.009497869018190385759 48.26097909799245400
40.009497869018190385759 292.71964791648190385 40.009497869018190385759 46.99611605897098343
41.009497869018190385759 293.53733041232487722 41.009497869018190385759 45.82711404038935399
42.009497869018190385759 294.30911714176664873 42.009497869018190385759 44.62807014140005890
43.009497869018190385759 295.03800609544430245 43.009497869018190385759 43.46866523796402504
44.009497869018190385759 295.72665054395048401 44.009497869018190385759 42.30027814359448257
46.009497869018190385759 296.99263688143525997 46.009497869018190385759 40.04648544384806996
48.009497869018190385759 298.12417292038730920 48.009497869018190385759 37.89212541966201542
50.009497869018218807469 299.13579924276501742 50.009497869018218807469 35.80647241735041320
52.009497869018190385759 300.04143954440047537 52.009497869018190385759 33.80022377985255844
54.009497869018190385759 300.85251468850231049 54.009497869018190385759 31.88959552051324309
56.009497869018190385759 301.57959321778690764 56.009497869018190385759 30.05814901735778477
58.009497869018190385759 302.23158795418243017 58.009497869018190385759 28.31372837206749793
60.009497869018190385759 302.81692836150506309 60.009497869018190385759 26.65413798741994711
62.009497869018190385759 303.34237783297697888 62.009497869018190385759 25.07302334322328008
64.009497869018190385759 303.81487551574139161 64.009497869018190385759 23.57004579548207346
66.009497869018218807469 304.23960619020385820 66.009497869018218807469 22.15898256231457353
68.009497869018190385759 304.62169103650319357 68.009497869018190385759 20.82507271764596268
70.009497869018190385759 304.96563706216318224 70.009497869018190385759 19.54566198869238391
72.009497869018190385759 305.27513618399950701 72.009497869018190385759 18.35503357913354705
74.009497869018218807469 305.55400484860194865 74.009497869018218807469 17.22050004878445151
76.009497869018190385759 305.80535701938936199 76.009497869018190385759 16.14762747229363882
78.009497869018190385759 306.03194222698226667 78.009497869018190385759 15.13120655879832377
80.009497869018218807469 306.23631718562131709 80.009497869018218807469 14.17720798426890383
82.009497869018190385759 306.42061907323005698 82.009497869018190385759 13.27092594011276816
84.009497869018190385759 306.58676524550998010 84.009497869018190385759 12.38711642143861624
86.009497869018218807469 306.73670580020313992 86.009497869018218807469 11.57782613973920149
88.009497869018190385759 306.87202088631443075 88.009497869018190385759 10.78903010453344358
91.009497869018190385759 307.05063093232820393 91.009497869018190385759 9.69770658419484022
94.009497869018190385759 307.20394921118094089 94.009497869018190385759 8.68263412377624455
97.009497869018190385759 307.33523430951800037 97.009497869018190385759 7.76548607146298675
99.504748934509137825444 307.42996418757604715 99.504748934509137825444 6.59980629818740283
nan nan nan nan

