Time Pressure difference Time.1 Pressure.1 difference.1
(hr) (psi) (hr) (psi)
0.000200000000006639311 0.73174616645333912 0.000200000000006639311 0.58653324571225662
0.000399999999999067768 1.36833484535166483 0.000399999999999067768 1.25027871455034312
0.000600000000019917934 1.95399038988480411 0.000600000000019917934 1.71636600895899827
0.000799999999998135536 2.50326384086469833 0.000799999999998135536 2.14892438273268738
0.001007140329448930061 3.04222534132772626 0.001007140329448930061 2.56791571389068851
0.001267914553963578328 3.68582047016871117 0.001267914553963578328 3.05945569329114164
0.001596209851982166583 4.45113837669531875 0.001596209851982166583 3.62960817996053553
0.002009509145210586212 5.35728937144936701 0.002009509145210586212 4.28738869091728958
0.002529822128153114136 6.42551305422172447 0.002529822128153114136 5.04229210659373539
0.003184857364431081805 7.67929035064885657 0.003184857364431081805 5.90433265558496156
0.004009497869020606231 9.14446980624917316 0.004009497869020606231 6.88413467770057252
0.005047658755856332391 10.84942107212735429 0.005047658755856332391 7.99308067269305500
0.006354625877790454069 12.82522888668402317 0.006354625877790454069 9.24351047888482036
0.007999999999995566213 15.10593759580660667 0.007999999999995566213 10.64895640866498105
0.010071403294347192059 17.72885244579391895 0.010071403294347192059 12.22442263994608069
0.012679145539706837553 20.73491139953205931 0.012679145539706837553 13.98678514079221280
0.015962098519764822413 24.16916866933001273 0.015962098519764822413 15.95540982700785726
0.020095091452077440408 28.08144846368610459 0.020095091452077440408 18.15286519235366569
0.025298221281346400247 32.52715280740439852 0.025298221281346400247 20.60507889657038305
0.031848573644282396344 37.56798195217253067 0.031848573644282396344 23.33985343168779281
0.040094978690177640601 43.27205124495755939 0.040094978690177640601 26.38296605617943058
0.050476587558421215363 49.71280588403687517 0.050476587558421215363 29.75228696357897462
0.063546258777947173257 56.96641711730799784 0.063546258777947173257 33.45222700418041484
0.079999999999998294697 65.10812532556749943 0.079999999999998294697 37.47133785639754677
0.100714032943528764008 74.20851254937772978 0.100714032943528764008 41.78356722519147581
0.126791455396883634421 84.33039997129758092 0.126791455396883634421 46.35511482276831430
0.159620985197506115583 95.52824491429268505 0.159620985197506115583 51.15592183104319446
0.200950914520774404082 107.85028174627521480 0.200950914520774404082 56.16122492930666965
0.252982212813464002465 121.33857622038642887 0.252982212813464002465 61.36325526037140321
0.318485736442795541734 136.03645803979418361 0.318485736442795541734 66.78770142491681838
0.400949786901833249431 151.99601267690999862 0.400949786901833249431 72.45569753373563060
0.504765875584169521062 169.26789637318290715 0.504765875584169521062 78.42882799503202307
0.635462587779429100010 187.92920721486234470 0.635462587779429100010 84.77766880223482815
0.800000000000011368684 208.05860004114444450 0.800000000000011368684 91.60078654844804191
1.007140329435344483500 229.77226359237303654 1.007140329435344483500 99.00013779787674650
1.267914553968893187630 253.18730934887878448 1.267914553968893187630 107.04697566616225402
1.596209851975103788391 278.44120992113363400 1.596209851975103788391 115.79515364863426896
2.009509145207672986544 305.66057304016794660 2.009509145207672986544 125.18419128016175534
2.529822128134725289783 334.93559304108140395 2.529822128134725289783 135.03750045311468853
3.184857364427998049905 366.28780547948150570 3.184857364427998049905 145.05238394551219017
4.009497869018190385759 399.64037996454521817 4.009497869018190385759 154.82904895272318413
5.009497869018204596614 433.61393661442633629 5.009497869018204596614 163.63764172034606759
6.009497869018190385759 462.43442323363848345 6.009497869018190385759 170.10731906710316252
7.009497869018190385759 487.39142454418976058 7.009497869018190385759 174.85722669088630710
8.009497869018204596614 509.31721373995100066 8.009497869018204596614 178.28515323267436088
9.009497869018190385759 528.79658411567515941 9.009497869018190385759 180.65685276759671751
10.009497869018190385759 546.26467529352248675 10.009497869018190385759 182.19528277198284627
11.009497869018204596614 562.04156303921331528 11.009497869018204596614 183.28458518394967314
12.009497869018190385759 576.37884315427993442 12.009497869018190385759 183.85468887023779416
13.009497869018190385759 589.47490884688158985 13.009497869018190385759 184.00550176790898149
14.009497869018204596614 601.49030874397419666 14.009497869018204596614 183.81094533948046887
15.009497869018190385759 612.55715671190853300 15.009497869018190385759 183.28015784051663672
16.009497869018190385759 622.78595781708202139 16.009497869018190385759 182.43273130164828899
17.009497869018190385759 632.25873040670762748 17.009497869018190385759 181.14152961611875980
18.009497869018204596614 641.05048687761177462 18.009497869018204596614 179.64743647230534407
19.009497869018190385759 649.22349742394965233 19.009497869018190385759 177.68438442158100088
20.009497869018190385759 656.82878557254571206 20.009497869018190385759 175.75251086567971015
21.009497869018204596614 663.91156227959652369 21.009497869018204596614 173.69001974847452630
22.009497869018190385759 670.52172054503375875 22.009497869018190385759 171.52816162530538691
23.009497869018190385759 676.71063019131713645 23.009497869018190385759 169.21371320902062507
24.009497869018204596614 682.51279972351460401 24.009497869018204596614 166.89232259665428160
25.009497869018190385759 687.95945092248894071 25.009497869018190385759 164.44535225698621161
26.009497869018190385759 693.07887303067343510 26.009497869018190385759 161.63148883576121762
27.009497869018204596614 697.89418656432883381 27.009497869018204596614 158.75504472502220210
28.009497869018190385759 702.41205750722792800 28.009497869018190385759 155.76198305764435759
29.009497869018190385759 706.64384520788610189 29.009497869018190385759 152.72895125269479877
30.009497869018190385759 710.61201706836345693 30.009497869018190385759 149.68949830620707075
31.009497869018190385759 714.32604883978410726 31.009497869018190385759 146.56753931856249551
32.009497869018190385759 717.81827895213916690 32.009497869018190385759 143.43286628644636949
33.009497869018190385759 721.11465180105278705 33.009497869018190385759 140.35072409653434988
34.009497869018190385759 724.22814830220238491 34.009497869018190385759 137.24295951946396599
35.009497869018190385759 727.16701711210453141 35.009497869018190385759 134.01051723758124012
36.009497869018190385759 729.94239999891942716 36.009497869018190385759 131.00281188658149745
37.009497869018190385759 732.56074837343828676 37.009497869018190385759 128.01582342867661168
38.009497869018190385759 735.02804047334757342 38.009497869018190385759 125.00275670292828067
39.009497869018190385759 737.34976601937842133 39.009497869018190385759 121.92857940382228321
40.009497869018190385759 739.53930278899633777 40.009497869018190385759 118.73297590860217099
41.009497869018190385759 741.60513044075355538 41.009497869018190385759 115.77955975107983022
42.009497869018190385759 743.55500508653074121 42.009497869018190385759 112.75024451589294472
43.009497869018190385759 745.39650097671153617 43.009497869018190385759 109.82107491610624095
44.009497869018190385759 747.13632144637506372 44.009497869018190385759 106.86921232912933988
46.009497869018190385759 750.33476289035684204 46.009497869018190385759 101.17513509972191343
48.009497869018190385759 753.19352341184389843 48.009497869018190385759 95.73226878861726163
50.009497869018218807469 755.74933895227411540 50.009497869018218807469 90.46298680441175577
52.009497869018190385759 758.03738692587717196 52.009497869018190385759 85.39431536688709912
54.009497869018190385759 760.08652148465364462 54.009497869018190385759 80.56722329821975848
56.009497869018190385759 761.92344344205309881 56.009497869018190385759 75.94017936837266802
58.009497869018190385759 763.57067052847548894 58.009497869018190385759 71.53300124769937440
60.009497869018190385759 765.04949929793713181 60.009497869018190385759 67.34014188648644961
62.009497869018190385759 766.37701707321832600 62.009497869018190385759 63.34554695607613439
64.009497869018190385759 767.57075520924081502 64.009497869018190385759 59.54836089195110560
66.009497869018218807469 768.64381275457753873 66.009497869018218807469 55.98339104084763562
68.009497869018190385759 769.60912807539625646 68.009497869018190385759 52.61334477462958858
70.009497869018190385759 770.47808786618622889 70.009497869018190385759 49.38098738008580568
72.009497869018190385759 771.26001954178718734 72.009497869018190385759 46.37293339343595022
74.009497869018218807469 771.96456513432849533 74.009497869018218807469 43.50659988286648883
76.009497869018190385759 772.59959189273592983 76.009497869018190385759 40.79604921485724844
78.009497869018190385759 773.17204634749612069 78.009497869018190385759 38.22812041657942217
80.009497869018218807469 773.68838788963455499 80.009497869018218807469 35.81789805641014368
82.009497869018190385759 774.15401597587697324 82.009497869018190385759 33.52822875735220975
84.009497869018190385759 774.57377469478592502 84.009497869018190385759 31.29533499743265423
86.009497869018218807469 774.95259085580175906 86.009497869018218807469 29.25070979054303066
88.009497869018190385759 775.29445661422221292 88.009497869018190385759 27.25786211505925039
91.009497869018190385759 775.74570459105041209 91.009497869018190385759 24.50069620189609765
94.009497869018190385759 776.13305437728649849 94.009497869018190385759 21.93617419252123213
97.009497869018190385759 776.46473860409457757 97.009497869018190385759 19.61905255073942200
99.504748934509137825444 776.70406817582306758 99.504748934509137825444 16.67402985431480644
nan nan nan nan

