Time Pressure difference Time.1 Pressure.1 difference.1
(hr) (psi) (hr) (psi)
0.000200000000006639311 0.46090957392208415 0.000200000000006639311 0.36944339549144994
0.000399999999999067768 0.86188170087802296 0.000399999999999067768 0.78752094103932169
0.000600000000019917934 1.23077225319099948 0.000600000000019917934 1.08109828537664776
0.000799999999998135536 1.57674658672923917 0.000799999999998135536 1.35355655696388100
0.001007140329448930061 1.91622566694477126 0.001007140329448930061 1.61746926983409667
0.001267914553963578328 2.32161099072472599 0.001267914553963578328 1.92707865742981532
0.001596209851982166583 2.80366660834662351 0.001596209851982166583 2.28620420088855836
0.002009509145210586212 3.37442965166458686 0.002009509145210586212 2.70052456078710312
0.002529822128153114136 4.04727844138418824 0.002529822128153114136 3.17602033735970712
0.003184857364431081805 4.83700305626026861 0.003184857364431081805 3.71899925594409586
0.004009497869020606231 5.75988488271831756 0.004009497869020606231 4.33615333647743029
0.005047658755856332391 6.83379329186328111 0.005047658755856332391 5.03465214588278087
0.006354625877790454069 8.07830782396272440 0.006354625877790454069 5.82226825596741371
0.007999999999995566213 9.51487220592195371 0.007999999999995566213 6.70752534970144332
0.010071403294347192059 11.16698412855906142 0.010071403294347192059 7.69987420327716876
0.012679145539706837553 13.06042944480515899 0.012679145539706837553 8.80994458915741774
0.015962098519764822413 15.22358673558179554 0.015962098519764822413 10.04993463889552885
0.020095091452077440408 17.68783908940076444 0.020095091452077440408 11.43405971202485993
0.025298221281346400247 20.48808292911675366 0.025298221281346400247 12.97865102714518848
0.031848573644282396344 23.66318178148260287 0.031848573644282396344 14.70122071529716301
0.040094978690177640601 27.25603988978297210 0.040094978690177640601 16.61800526088561369
0.050476587558421215363 31.31291864436956374 0.050476587558421215363 18.74026067544174978
0.063546258777947173257 35.88179650966498002 0.063546258777947173257 21.07076524906511494
0.079999999999998294697 41.01006561895879088 0.079999999999998294697 23.60230795521900404
0.100714032943528764008 46.74218392739111039 0.100714032943528764008 26.31847907048216584
0.126791455396883634421 53.11772100951379372 0.126791455396883634421 29.19798859436025396
0.159620985197506115583 60.17097824287512253 0.159620985197506115583 32.22190318948676691
0.200950914520774404082 67.93233731306774814 0.200950914520774404082 35.37462502683255394
0.252982212813464002465 76.42829444138517658 0.252982212813464002465 38.65126068731291298
0.318485736442795541734 85.68614198129756687 0.318485736442795541734 42.06799081188861322
0.400949786901833249431 95.73868733788242480 0.400949786901833249431 45.63812727624451071
0.504765875584169521062 106.61783767749484753 0.504765875584169521062 49.40046064006774884
0.635462587779429100010 118.37215525807694405 0.635462587779429100010 53.39944504955229121
0.800000000000011368684 131.05118289936973497 0.800000000000011368684 57.69716526648201693
1.007140329435344483500 144.72810513620450479 1.007140329435344483500 62.35784131512312456
1.267914553968893187630 159.47668771546884159 1.267914553968893187630 67.42635384490904471
1.596209851975103788391 175.38352137753611260 1.596209851975103788391 72.93662389666592105
2.009509145207672986544 192.52835333262723339 2.009509145207672986544 78.85055625829409109
2.529822128134725289783 210.96799485556221043 2.529822128134725289783 85.05692226447374082
3.184857364427998049905 230.71601068260395095 3.184857364427998049905 91.36506010649769394
4.009497869018190385759 251.72400717081725929 4.009497869018190385759 97.52314976850881578
5.009497869018204596614 273.12314561251213263 5.009497869018204596614 103.07147366210189432
6.009497869018190385759 291.27648732699208267 6.009497869018190385759 107.14657014502596155
7.009497869018190385759 306.99631117816716142 7.009497869018190385759 110.13842442375522523
8.009497869018204596614 320.80684633287114593 8.009497869018204596614 112.29759413894427666
9.009497869018190385759 333.07644023270881917 9.009497869018190385759 113.79147148634540088
10.009497869018190385759 344.07917701647187414 10.009497869018190385759 114.76049209805198359
11.009497869018204596614 354.01666482584130335 11.009497869018204596614 115.44661787989980439
12.009497869018190385759 363.04737789546459226 12.009497869018190385759 115.80571268515453198
13.009497869018190385759 371.29627940688442322 13.009497869018190385759 115.90070615638033757
14.009497869018204596614 378.86449513654702059 14.009497869018204596614 115.77815967149007292
15.009497869018190385759 385.83524047886152175 15.009497869018190385759 115.44382920116271407
16.009497869018190385759 392.27811995709635084 16.009497869018190385759 114.91005530132366630
17.009497869018190385759 398.24479498500517138 17.009497869018190385759 114.09675795040021740
18.009497869018204596614 403.78251409417606510 18.009497869018204596614 113.15566407675179050
19.009497869018190385759 408.93049980461915993 19.009497869018190385759 111.91918409808431534
20.009497869018190385759 413.72089062704594653 20.009497869018190385759 110.70234271463365872
21.009497869018204596614 418.18216387163926129 21.009497869018204596614 109.40322842387263336
22.009497869018190385759 422.34574595700507871 22.009497869018190385759 108.04152521023040379
23.009497869018190385759 426.24399351727112162 23.009497869018190385759 106.58370898608148991
24.009497869018204596614 429.89864264221375834 24.009497869018204596614 105.12152003709336157
25.009497869018190385759 433.32935919190066443 25.009497869018190385759 103.58023139307789506
26.009497869018190385759 436.55396188991983308 26.009497869018190385759 101.80784548931868017
27.009497869018204596614 439.58701380169901540 27.009497869018204596614 99.99604149187887003
28.009497869018190385759 442.43271367248803472 28.009497869018190385759 98.11078285838303259
29.009497869018190385759 445.09821648679411510 29.009497869018190385759 96.20034798219217009
30.009497869018190385759 447.59767392888352333 30.009497869018190385759 94.28586858107428270
31.009497869018190385759 449.93705454989253667 31.009497869018190385759 92.31942057934193713
32.009497869018190385759 452.13672756071946424 32.009497869018190385759 90.34496430221454943
33.009497869018190385759 454.21303472150037805 33.009497869018190385759 88.40359595804542892
34.009497869018190385759 456.17415240348049110 34.009497869018190385759 86.44608867924371509
35.009497869018190385759 458.02527623997445971 35.009497869018190385759 84.41004986801024756
36.009497869018190385759 459.77342416677890924 36.009497869018190385759 82.51556752513506865
37.009497869018190385759 461.42265977470611915 37.009497869018190385759 80.63413426240144588
38.009497869018190385759 462.97674861404004787 38.009497869018190385759 78.73627491659230770
39.009497869018190385759 464.43914852980827845 39.009497869018190385759 76.79992346843991413
40.009497869018190385759 465.81828586709383444 40.009497869018190385759 74.78708853615093233
41.009497869018190385759 467.11950176192084427 41.009497869018190385759 72.92680167004267844
42.009497869018190385759 468.34768160540755844 42.009497869018190385759 71.01870777309336802
43.009497869018190385759 469.50759623842333212 43.009497869018190385759 69.17369323926006075
44.009497869018190385759 470.60346793292126222 44.009497869018190385759 67.31438493043161486
46.009497869018190385759 472.61809042189935326 46.009497869018190385759 63.72782058612359890
48.009497869018190385759 474.41875594542403860 48.009497869018190385759 60.29948804763522929
50.009497869018218807469 476.02860360266930684 50.009497869018218807469 56.98049216414898410
52.009497869018190385759 477.46979081344500173 52.009497869018190385759 53.78785611120766674
54.009497869018190385759 478.76049212449163406 54.009497869018190385759 50.74738517927828951
56.009497869018190385759 479.91752574561286337 56.009497869018190385759 47.83291983050685303
58.009497869018190385759 480.95507506170383749 58.009497869018190385759 45.05694274593433590
60.009497869018190385759 481.88655426758742806 60.009497869018190385759 42.41595997036539245
62.009497869018190385759 482.72272626305476706 62.009497869018190385759 39.89985926253320514
64.009497869018190385759 483.47463363322310670 64.009497869018190385759 37.50810172261811459
66.009497869018218807469 484.15052715844939257 66.009497869018218807469 35.26261167368328842
68.009497869018190385759 484.75855640905069777 68.009497869018190385759 33.13989937279237807
70.009497869018190385759 485.30589359411538908 70.009497869018190385759 31.10391403008259203
72.009497869018190385759 485.79841383126836263 72.009497869018190385759 29.20921208987117268
74.009497869018218807469 486.24219040811175319 74.009497869018218807469 27.40377651994064578
76.009497869018190385759 486.64217871835506912 76.009497869018190385759 25.69646487177497463
78.009497869018190385759 487.00275421697665479 78.009497869018190385759 24.07898736039541276
80.009497869018218807469 487.32798552134931924 80.009497869018218807469 22.56084539804330191
82.009497869018190385759 487.62127362134214081 82.009497869018190385759 21.11863695277560637
84.009497869018190385759 487.88566969357594871 84.009497869018190385759 19.71219007450087446
86.009497869018218807469 488.12427701859246554 86.009497869018218807469 18.42432909737344104
88.009497869018190385759 488.33961016043298287 88.009497869018190385759 17.16908156057966295
91.009497869018190385759 488.62384057019545480 91.009497869018190385759 15.43240807388698066
94.009497869018190385759 488.86782302356203900 94.009497869018190385759 13.81707641812469767
97.009497869018190385759 489.07674305985790397 97.009497869018190385759 12.35757639256850382
99.504748934509137825444 489.22749108695995801 99.504748934509137825444 10.50257636875014633
nan nan nan nan

