Time Pressure difference Time.1 Pressure.1 difference.1
(hr) (psi) (hr) (psi)
0.000200000000006639311 0.39128577121482067 0.000200000000006639311 0.31363623605165386
0.000399999999999067768 0.73168809047348782 0.000399999999999067768 0.66856007381283811
0.000600000000019917934 1.04485499440081830 0.000600000000019917934 0.91779038728349860
0.000799999999998135536 1.33856734402089494 0.000799999999998135536 1.14909182026238854
0.001007140329448930061 1.62676559640930751 0.001007140329448930061 1.37313856442109117
0.001267914553963578328 1.97091446644606649 0.001267914553963578328 1.63597916234978280
0.001596209851982166583 2.38015201494078887 0.001596209851982166583 1.94085613428907799
0.002009509145210586212 2.86469707588443789 0.002009509145210586212 2.29259033710325077
0.002529822128153114136 3.43590707561618380 0.002529822128153114136 2.69625895709389063
0.003184857364431081805 4.10633794202155755 0.003184857364431081805 3.15721689099785774
0.004009497869020606231 4.88981163759470494 0.004009497869020606231 3.68114527960772753
0.005047658755856332391 5.80149823266943265 0.005047658755856332391 4.27413067369504951
0.006354625877790454069 6.85801963303179996 0.006354625877790454069 4.94277154056448076
0.007999999999995566213 8.07758033191561609 0.007999999999995566213 5.69430399778279561
0.010071403294347192059 9.48012852001539486 0.010071403294347192059 6.53675121184557195
0.012679145539706837553 11.08755490631495277 0.012679145539706837553 7.47913724940554125
0.015962098519764822413 12.92395127703469626 0.015962098519764822413 8.53181762395662879
0.020095091452077440408 15.01596007287496803 0.020095091452077440408 9.70686035975524319
0.025298221281346400247 17.39320635372147450 0.025298221281346400247 11.01812972395105206
0.031848573644282396344 20.08868302295049091 0.031848573644282396344 12.48049251056949593
0.040094978690177640601 23.13881332032935134 0.040094978690177640601 14.10773256286664257
0.050476587558421215363 26.58287051077899932 0.050476587558421215363 15.90940558851701425
0.063546258777947173257 30.46158555654337974 0.063546258777947173257 17.88787019633624809
0.079999999999998294697 34.81519165839100083 0.079999999999998294697 20.03700463872066706
0.100714032943528764008 39.68143106826858713 0.100714032943528764008 22.34287800243350119
0.126791455396883634421 45.09389608360536528 0.126791455396883634421 24.78741629913967159
0.159620985197506115583 51.08170660497857796 0.159620985197506115583 27.35454621222290683
0.200950914520774404082 57.67065493949255739 0.200950914520774404082 30.03102608018111042
0.252982212813464002465 64.88323485809436875 0.252982212813464002465 32.81270167110250924
0.318485736442795541734 72.74261600224959068 0.318485736442795541734 35.71330942036465217
0.400949786901833249431 81.27664997566452598 0.400949786901833249431 38.74415034629821264
0.504765875584169521062 90.51242413104547779 0.504765875584169521062 41.93815540742911452
0.635462587779429100010 100.49116503782363452 0.635462587779429100010 45.33306362212747587
0.800000000000011368684 111.25493170611149196 0.800000000000011368684 48.98158138936993566
1.007140329435344483500 122.86585360505578990 1.007140329435344483500 52.93822782341268152
1.267914553968893187630 135.38655361947658662 1.267914553968893187630 57.24110401939408632
1.596209851975103788391 148.89054231748534107 1.596209851975103788391 61.91900699384629547
2.009509145207672986544 163.44552050292523404 2.009509145207672986544 66.93959609843093972
2.529822128134725289783 179.09971768704826900 2.529822128134725289783 72.20844458101849739
3.184857364427998049905 195.86464955230124474 3.184857364427998049905 77.56369151034999732
4.009497869018190385759 213.69923267371495967 4.009497869018190385759 82.79155614788814432
5.009497869018204596614 231.86587286137734054 5.009497869018204596614 87.50176464969979406
6.009497869018190385759 247.27701794225006893 6.009497869018190385759 90.96128764577731829
7.009497869018190385759 260.62224604551352058 7.009497869018190385759 93.50120019055957243
8.009497869018204596614 272.34659764210510957 8.009497869018204596614 95.33421133849951445
9.009497869018190385759 282.76277856613648964 9.009497869018190385759 96.60242745517540186
10.009497869018190385759 292.10347051851533706 10.009497869018190385759 97.42507033097464841
11.009497869018204596614 300.53982723885621908 11.009497869018204596614 98.00755173489983463
12.009497869018190385759 308.20638425566636442 12.009497869018190385759 98.31240261186835028
13.009497869018190385759 315.20922813696233789 13.009497869018190385759 98.39304661614161773
14.009497869018204596614 321.63420886214419170 14.009497869018204596614 98.28901168486015649
15.009497869018190385759 327.55197152435067665 15.009497869018190385759 98.00518430672725856
16.009497869018190385759 333.02160636841114183 16.009497869018190385759 97.55204090535332284
17.009497869018190385759 338.08697096914335134 17.009497869018190385759 96.86159813916151506
18.009497869018204596614 342.78817661771444136 18.009497869018204596614 96.06266346092824904
19.009497869018190385759 347.15852098216907962 19.009497869018190385759 95.01296293523169822
20.009497869018190385759 351.22528781329276626 20.009497869018190385759 93.97993444958325426
21.009497869018204596614 355.01265271278140290 21.009497869018204596614 92.87706098824232015
22.009497869018190385759 358.54729490609793174 22.009497869018190385759 91.72105312409289013
23.009497869018190385759 361.85668331828753708 23.009497869018190385759 90.48345083108428355
24.009497869018204596614 364.95927064187935684 24.009497869018204596614 89.24213634568953069
25.009497869018190385759 367.87175206321478527 25.009497869018190385759 87.93367075968242830
26.009497869018190385759 370.60925465579299498 26.009497869018190385759 86.42901686555453011
27.009497869018204596614 373.18414162621581909 27.009497869018204596614 84.89089927256182477
28.009497869018190385759 375.59997746818464748 28.009497869018190385759 83.29042290998680187
29.009497869018190385759 377.86283635283729154 29.009497869018190385759 81.66857336252567734
30.009497869018190385759 379.98473224778331314 30.009497869018190385759 80.04329024556457739
31.009497869018190385759 381.97073211033170992 31.009497869018190385759 78.37388876977365726
32.009497869018190385759 383.83812823130563174 32.009497869018190385759 76.69768872786190173
33.009497869018190385759 385.60079382701388795 33.009497869018190385759 75.04957844172436410
34.009497869018190385759 387.26567016730518844 34.009497869018190385759 73.38776712648787282
35.009497869018190385759 388.83716804662486766 35.009497869018190385759 71.65928704806913174
36.009497869018190385759 390.32124528962197019 36.009497869018190385759 70.05098028568868074
37.009497869018190385759 391.72135165163871307 37.009497869018190385759 68.45375144330756711
38.009497869018190385759 393.04068386871676921 38.009497869018190385759 66.84257779928229581
39.009497869018190385759 394.28217745279795281 39.009497869018190385759 65.19872656988404458
40.009497869018190385759 395.45298588717025723 40.009497869018190385759 63.48994525274445522
41.009497869018190385759 396.55764348972735434 41.009497869018190385759 61.91066848725677119
42.009497869018190385759 397.60029767709829684 42.009497869018190385759 60.29080629679527448
43.009497869018190385759 398.58499861932619979 43.009497869018190385759 58.72449486474948088
44.009497869018190385759 399.51533078293311974 44.009497869018190385759 57.14604883822139669
46.009497869018190385759 401.22562963309280804 46.009497869018190385759 54.10126158519859274
48.009497869018190385759 402.75429130110018150 48.009497869018190385759 51.19080405252416455
50.009497869018218807469 404.12095955392771884 50.009497869018218807469 48.37316706382436138
52.009497869018190385759 405.34444476911795618 52.009497869018190385759 45.66280231797388467
54.009497869018190385759 406.44017609360167853 54.009497869018190385759 43.08161702530875914
56.009497869018190385759 407.42243122210641104 56.009497869018190385759 40.60740323979585753
58.009497869018190385759 408.30325103425610678 58.009497869018190385759 38.25075804111041577
60.009497869018190385759 409.09402341145636228 60.009497869018190385759 36.00871526185098048
62.009497869018190385759 409.80388543781992894 62.009497869018190385759 33.87269018964298795
64.009497869018190385759 410.44221163424680299 64.009497869018190385759 31.84222532947337925
66.009497869018218807469 411.01600643965036852 66.009497869018218807469 29.93593317312690161
68.009497869018190385759 411.53218837142975417 68.009497869018190385759 28.13387227720440720
70.009497869018190385759 411.99684622340311080 70.009497869018190385759 26.40543759049307582
72.009497869018190385759 412.41496763319162255 72.009497869018190385759 24.79694440257945232
74.009497869018218807469 412.79170847335166172 74.009497869018218807469 23.26423323898284323
76.009497869018190385759 413.13127558869422273 76.009497869018190385759 21.81482365247362054
78.009497869018190385759 413.43738348933663929 78.009497869018190385759 20.44167809145350390
80.009497869018218807469 413.71348619788261658 80.009497869018218807469 19.15286270951712311
82.009497869018190385759 413.96247095950792527 82.009497869018190385759 17.92851052486388497
84.009497869018190385759 414.18692804802060436 84.009497869018190385759 16.73451785780889978
86.009497869018218807469 414.38949197046673589 86.009497869018218807469 15.64119781378228602
88.009497869018190385759 414.57229744737668398 88.009497869018190385759 14.57556470852835417
91.009497869018190385759 414.81359274992416886 91.009497869018190385759 13.10122860653245169
94.009497869018190385759 415.02071984779729519 94.009497869018190385759 11.72990475375540953
97.009497869018190385759 415.19808096622375615 97.009497869018190385759 10.49087301000528427
99.504748934509137825444 415.32605738802340056 99.504748934509137825444 8.91608447014740513
nan nan nan nan

