Time Pressure difference Time.1 Pressure.1 difference.1
(hr) (psi) (hr) (psi)
0.000200000000006639311 0.41774281624358084 0.000200000000006639311 0.33484295663877633
0.000399999999999067768 0.78116166242721119 0.000399999999999067768 0.71376520335890192
0.000600000000019917934 1.11550355274108726 0.000600000000019917934 0.97984738855889530
0.000799999999998135536 1.42907545625006560 0.000799999999998135536 1.22678842020895562
0.001007140329448930061 1.73676042321278379 0.001007140329448930061 1.46598423247803344
0.001267914553963578328 2.10417914567195696 0.001267914553963578328 1.74659697048019535
0.001596209851982166583 2.54108756043500561 0.001596209851982166583 2.07208839959688040
0.002009509145210586212 3.05839545468089469 0.002009509145210586212 2.44760534210311453
0.002529822128153114136 3.66822819460802574 0.002529822128153114136 2.87856828159490075
0.003184857364431081805 4.38399068543226811 0.003184857364431081805 3.37069418967742873
0.004009497869020606231 5.22043947074167747 0.004009497869020606231 3.93004834121821434
0.005047658755856332391 6.19377035516309427 0.005047658755856332391 4.56312883312638728
0.006354625877790454069 7.32172914558555110 0.006354625877790454069 5.27698029241759503
0.007999999999995566213 8.62375124403802396 0.007999999999995566213 6.07932811151188268
0.010071403294347192059 10.12113365126198872 0.010071403294347192059 6.97873794858957908
0.012679145539706837553 11.83724723094123199 0.012679145539706837553 7.98484403851125357
0.015962098519764822413 13.79781275128259388 0.015962098519764822413 9.10870208963340922
0.020095091452077440408 16.03127409915477131 0.020095091452077440408 10.36319611361769688
0.025298221281346400247 18.56925945237168207 0.025298221281346400247 11.76312781916482209
0.031848573644282396344 21.44699255119268955 0.031848573644282396344 13.32436922836600957
0.040094978690177640601 24.70335941672172453 0.040094978690177640601 15.06163618811385163
0.050476587558421215363 28.38028880154341138 0.050476587558421215363 16.98513052154841318
0.063546258777947173257 32.52126571872959460 0.063546258777947173257 19.09737031637321891
0.079999999999998294697 37.16924376340676162 0.079999999999998294697 21.39181989899003611
0.100714032943528764008 42.36451715473514668 0.100714032943528764008 23.85360640829199141
0.126791455396883634421 48.14294955545057064 0.126791455396883634421 26.46343377132349062
0.159620985197506115583 54.53562982737926745 0.159620985197506115583 29.20414186358317465
0.200950914520774404082 61.57009424145113030 0.200950914520774404082 32.06159367990865405
0.252982212813464002465 69.27035749974486123 0.252982212813464002465 35.03135409726246507
0.318485736442795541734 77.66115587428781453 0.318485736442795541734 38.12808834914375922
0.400949786901833249431 86.77222417330732185 0.400949786901833249431 41.36386157967780264
0.504765875584169521062 96.63248127869623261 0.504765875584169521062 44.77383139583179883
0.635462587779429100010 107.28594132151988561 0.635462587779429100010 48.39828856454890627
0.800000000000011368684 118.77750715954962857 0.800000000000011368684 52.29350326267253024
1.007140329435344483500 131.17350918689228934 1.007140329435344483500 56.51768095026265826
1.267914553968893187630 144.54080457595361509 1.267914553968893187630 61.11149895308977165
1.596209851975103788391 158.95787436030465756 1.596209851975103788391 66.10570141691775348
2.009509145207672986544 174.49699697821196764 2.009509145207672986544 71.46576095917893667
2.529822128134725289783 191.20966301108356333 2.529822128134725289783 77.09086610073150325
3.184857364427998049905 209.10816678181626571 3.184857364427998049905 82.80821157688613710
4.009497869018190385759 228.14864698261382614 4.009497869018190385759 88.38956172372400033
5.009497869018204596614 247.54363650680855358 5.009497869018204596614 93.41825407441258733
6.009497869018190385759 263.99681630845202562 6.009497869018190385759 97.11169499549180273
7.009497869018190385759 278.24439079592184498 7.009497869018190385759 99.82334539917391680
8.009497869018204596614 290.76149214459621817 8.009497869018204596614 101.78029680266851642
9.009497869018190385759 301.88196999943403398 9.009497869018190385759 103.13426418702000831
10.009497869018190385759 311.85423898773882456 10.009497869018190385759 104.01253060246403948
11.009497869018204596614 320.86102552191056247 11.009497869018204596614 104.63439686999983280
12.009497869018190385759 329.04596183878970805 12.009497869018190385759 104.95986043971710444
13.009497869018190385759 336.52230761953273941 13.009497869018190385759 105.04595724143233326
14.009497869018204596614 343.38171764641720074 14.009497869018204596614 104.93488791977952701
15.009497869018190385759 349.69961372706484326 15.009497869018190385759 104.63186936661273307
16.009497869018190385759 355.53908153211153831 16.009497869018190385759 104.14808637582206075
17.009497869018190385759 360.94694409517086342 17.009497869018190385759 103.41095886743221399
18.009497869018204596614 365.96602485876985611 18.009497869018204596614 102.55800369494120616
19.009497869018190385759 370.63187293470014083 19.009497869018190385759 101.43732697711570268
20.009497869018190385759 374.97361688251896794 20.009497869018190385759 100.33444959030241250
21.009497869018204596614 379.01706695314737772 21.009497869018204596614 99.15700461378183661
22.009497869018190385759 382.79070630544265441 22.009497869018190385759 97.92283251682513878
23.009497869018190385759 386.32386119390127988 23.009497869018190385759 96.60154892998322396
24.009497869018204596614 389.63623200200640895 24.009497869018204596614 95.27630214842299949
25.009497869018190385759 392.74564277211544550 25.009497869018190385759 93.87936380037271533
26.009497869018190385759 395.66824340476119914 26.009497869018190385759 92.27297174258491452
27.009497869018204596614 398.41723305289940527 27.009497869018204596614 90.63085331590229998
28.009497869018190385759 400.99641722581998238 28.009497869018190385759 88.92215969037737011
29.009497869018190385759 403.41228080374088449 29.009497869018190385759 87.19064771799894231
30.009497869018190385759 405.67765008660143167 30.009497869018190385759 85.45547001305826029
31.009497869018190385759 407.79793463736484682 31.009497869018190385759 83.67319085740960816
32.009497869018190385759 409.79159597648288127 32.009497869018190385759 81.88365344611590046
33.009497869018190385759 411.67344536691877011 33.009497869018190385759 80.12410509792637470
34.009497869018190385759 413.45089341705181596 34.009497869018190385759 78.34992931653509629
35.009497869018190385759 415.12864916009772287 35.009497869018190385759 76.50457691964675178
36.009497869018190385759 416.71307326294157747 36.009497869018190385759 74.78752343667829905
37.009497869018190385759 418.20784873840437967 37.009497869018190385759 73.08229691456324417
38.009497869018190385759 419.61638847193961510 38.009497869018190385759 71.36218270386009976
39.009497869018190385759 420.94182646206189702 39.009497869018190385759 69.60718139133527416
40.009497869018190385759 422.19179987954123590 40.009497869018190385759 67.78285970043891950
41.009497869018190385759 423.37114963316088279 41.009497869018190385759 66.09679909671541509
42.009497869018190385759 424.48430356985579692 42.009497869018190385759 64.36740885778856125
43.009497869018190385759 425.53558571458313509 43.009497869018190385759 62.69519024706350052
44.009497869018190385759 426.52882289992857068 44.009497869018190385759 61.01001655326127349
46.009497869018190385759 428.35476473283932819 46.009497869018190385759 57.75935400555010091
48.009497869018190385759 429.98678786594325629 48.009497869018190385759 54.65210397066636716
50.009497869018218807469 431.44586429244952797 50.009497869018218807469 51.64395060194771503
52.009497869018190385759 432.75207626596221644 52.009497869018190385759 48.75032275940272086
54.009497869018190385759 433.92189618533984685 54.009497869018190385759 45.99460892381718224
56.009497869018190385759 434.97056714103888453 56.009497869018190385759 43.35309954426603696
58.009497869018190385759 435.91094416468627060 58.009497869018190385759 40.83710822894350656
60.009497869018190385759 436.75518513678616728 60.009497869018190385759 38.44346825108646470
62.009497869018190385759 437.51304495140914241 62.009497869018190385759 36.16301443734126764
64.009497869018190385759 438.19453199385782227 64.009497869018190385759 33.99525835886837655
66.009497869018218807469 438.80712431279403063 66.009497869018218807469 31.96007100333832440
68.009497869018190385759 439.35820822572571842 68.009497869018190385759 30.03616257352783592
70.009497869018190385759 439.85428422427378337 70.009497869018190385759 28.19085863753709376
72.009497869018190385759 440.30067718846078151 72.009497869018190385759 26.47360612375030797
74.009497869018218807469 440.70289160856049193 74.009497869018218807469 24.83725968574680820
76.009497869018190385759 441.06541877796536255 76.009497869018190385759 23.28984731580813516
78.009497869018190385759 441.39222436583980880 78.009497869018190385759 21.82385561365142834
80.009497869018218807469 441.68699594079998860 80.009497869018218807469 20.44789613115707283
82.009497869018190385759 441.95281597100495219 82.009497869018190385759 19.14075856747034265
84.009497869018190385759 442.19244987333161134 84.009497869018190385759 17.86603330015184810
86.009497869018218807469 442.40871028875454840 86.009497869018218807469 16.69878770154692305
88.009497869018190385759 442.60387627833813440 88.009497869018190385759 15.56110111230785087
91.009497869018190385759 442.86148692162726093 91.009497869018190385759 13.98707680412717380
94.009497869018190385759 443.08261905458789442 94.009497869018190385759 12.52302998621573948
97.009497869018190385759 443.27197256180471641 97.009497869018190385759 11.20022029537930841
99.504748934509137825444 443.40860219361923100 99.504748934509137825444 9.51895139161644543
nan nan nan nan

