Time Pressure difference Time.1 Pressure.1 difference.1
(hr) (psi) (hr) (psi)
0.000200000000006639311 0.58344746668686798 0.000200000000006639311 0.46766399610549098
0.000399999999999067768 1.09102245519000496 0.000399999999999067768 0.99689206735793279
0.000600000000019917934 1.55798662866171833 0.000600000000019917934 1.36852018602059045
0.000799999999998135536 1.99594205389592516 0.000799999999998135536 1.71341449355850806
0.001007140329448930061 2.42567539108718799 0.001007140329448930061 2.04749131136098672
0.001267914553963578328 2.93883687345516664 0.001267914553963578328 2.43941376877067251
0.001596209851982166583 3.54905229274089207 0.001596209851982166583 2.89401679810364287
0.002009509145210586212 4.27155898503764941 0.002009509145210586212 3.41848879447068343
0.002529822128153114136 5.12329204513587566 0.002529822128153114136 4.02040036662754474
0.003184857364431081805 6.12297365732040078 0.003184857364431081805 4.70773621824947419
0.004009497869020606231 7.29121379413587700 0.004009497869020606231 5.48896751656810622
0.005047658755856332391 8.65063259604445633 0.005047658755856332391 6.37316993693318778
0.006354625877790454069 10.22601504000115291 0.006354625877790454069 7.37018247507657520
0.007999999999995566213 12.04450590417310885 0.007999999999995566213 8.49079492907826250
0.010071403294347192059 14.13584999959591038 0.010071403294347192059 9.74697066819677893
0.012679145539706837553 16.53268863254792009 0.012679145539706837553 11.15216550712071708
0.015962098519764822413 19.27094514262469005 0.015962098519764822413 12.72182058518799508
0.020095091452077440408 22.39034615848616383 0.020095091452077440408 14.47393057201938404
0.025298221281346400247 25.93506570181244797 0.025298221281346400247 16.42916852076687206
0.031848573644282396344 29.95429959649912632 0.031848573644282396344 18.60970235561785913
0.040094978690177640601 34.50235865202134278 0.040094978690177640601 21.03608520939901538
0.050476587558421215363 39.63780335948896294 0.050476587558421215363 23.72256562842928318
0.063546258777947173257 45.42136778715899226 0.063546258777947173257 26.67266054186792701
0.079999999999998294697 51.91304378955810250 0.079999999999998294697 29.87724179225608268
0.100714032943528764008 59.16910895944675275 0.100714032943528764008 33.31553695024781803
0.126791455396883634421 67.23965287911262578 0.126791455396883634421 36.96059583394847436
0.159620985197506115583 76.16809632557304610 0.159620985197506115583 40.78845146947116973
0.200950914520774404082 85.99289829056007761 0.200950914520774404082 44.77935917293909540
0.252982212813464002465 96.74759930797699781 0.252982212813464002465 48.92712455584323550
0.318485736442795541734 108.46674770442199076 0.318485736442795541734 53.25223006097078127
0.400949786901833249431 121.19187309538590114 0.400949786901833249431 57.77152667295000299
0.504765875584169521062 134.96336551924574110 0.504765875584169521062 62.53411784951174468
0.635462587779429100010 149.84269804572275575 0.635462587779429100010 67.59627636181996024
0.800000000000011368684 165.89258499950432224 0.800000000000011368684 73.03659289019928735
1.007140329435344483500 183.20566783102626118 1.007140329435344483500 78.93636106053351398
1.267914553968893187630 201.87532372441521034 1.267914553968893187630 85.35239353781538796
1.596209851975103788391 222.01116452322548867 1.596209851975103788391 92.32762964562846264
2.009509145207672986544 243.71413911290269994 2.009509145207672986544 99.81384613965325059
2.529822128134725289783 267.05616267214674053 2.529822128134725289783 107.67024298735499599
3.184857364427998049905 292.05440627193672753 3.184857364427998049905 115.65546883571762748
4.009497869018190385759 318.64761028571729184 4.009497869018190385759 123.45075454080118504
5.009497869018204596614 345.73594565450929395 5.009497869018204596614 130.47416152392960953
6.009497869018190385759 368.71555344413798139 6.009497869018190385759 135.63266734370358790
7.009497869018190385759 388.61466581163756473 7.009497869018190385759 139.41993907417958098
8.009497869018204596614 406.09688402861939949 8.009497869018204596614 142.15314786772702860
9.009497869018190385759 421.62848476587612367 9.009497869018190385759 144.04418898120459858
10.009497869018190385759 435.55642045287521569 10.009497869018190385759 145.27083440810810089
11.009497869018204596614 448.13589897893513125 11.009497869018204596614 146.13937429509974208
12.009497869018190385759 459.56752670150962103 12.009497869018190385759 146.59393841413822202
13.009497869018190385759 470.00948964194736845 13.009497869018190385759 146.71418694720051690
14.009497869018204596614 479.58979897949603810 14.009497869018204596614 146.55906012795873039
15.009497869018190385759 488.41379383880058640 15.009497869018190385759 146.13584421536910440
16.009497869018190385759 496.56958387318235282 16.009497869018190385759 145.46016063823145714
17.009497869018190385759 504.12256525292201559 17.009497869018190385759 144.43063921818031758
18.009497869018204596614 511.13254805274857517 18.009497869018204596614 143.23934516060120359
19.009497869018190385759 517.64918253213124899 19.009497869018190385759 141.67413334470492714
20.009497869018190385759 523.71315157925153017 20.009497869018190385759 140.13378126112235122
21.009497869018204596614 529.36050351122923985 21.009497869018204596614 138.48928311058196527
22.009497869018190385759 534.63101980660155732 22.009497869018190385759 136.76555608183247159
23.009497869018190385759 539.56565946748219176 23.009497869018190385759 134.92016333887656288
24.009497869018204596614 544.19193736280226403 24.009497869018204596614 133.06923533396411585
25.009497869018190385759 548.53474773838797773 25.009497869018190385759 131.11817810785390748
26.009497869018190385759 552.61664662198313636 26.009497869018190385759 128.87458386714359904
27.009497869018204596614 556.45606883054949776 27.009497869018204596614 126.58109179787689413
28.009497869018190385759 560.05832939206186438 28.009497869018190385759 124.19461636756038558
29.009497869018190385759 563.43248552255806771 29.009497869018190385759 121.77627131280519279
30.009497869018190385759 566.59645128761997057 30.009497869018190385759 119.35280645157138224
31.009497869018190385759 569.55778204351952354 31.009497869018190385759 116.86355656418209037
32.009497869018190385759 572.34226238048779578 32.009497869018190385759 114.36416931307522304
33.009497869018190385759 574.97057869579657563 33.009497869018190385759 111.90666678677048651
34.009497869018190385759 577.45308113914893511 34.009497869018190385759 109.42873461209400432
35.009497869018190385759 579.79634666026981904 35.009497869018190385759 106.85139243110663188
36.009497869018190385759 582.00925899057506285 36.009497869018190385759 104.45324106656070740
37.009497869018190385759 584.09696207130480161 37.009497869018190385759 102.07160802400665034
38.009497869018190385759 586.06422256580901831 38.009497869018190385759 99.66918184305794171
39.009497869018190385759 587.91541762534643567 39.009497869018190385759 97.21803000989825705
40.009497869018190385759 589.66121383175925530 40.009497869018190385759 94.67006071494634512
41.009497869018190385759 591.30837232098133427 41.009497869018190385759 92.31519607174585929
42.009497869018190385759 592.86307731923193387 42.009497869018190385759 89.89981437137801379
43.009497869018190385759 594.33136804803439190 43.009497869018190385759 87.56428237839868700
44.009497869018190385759 595.71858931690030659 44.009497869018190385759 85.21065645272157951
46.009497869018190385759 598.26882141019893879 46.009497869018190385759 80.67056442775162850
48.009497869018190385759 600.54821371943410213 48.009497869018190385759 76.33077187903070637
50.009497869018218807469 602.58605712845451308 50.009497869018218807469 72.12938434072032123
52.009497869018190385759 604.41039985146062463 52.009497869018190385759 68.08795078729913541
54.009497869018190385759 606.04424833885809676 54.009497869018190385759 64.23913713026466610
56.009497869018190385759 607.50889210698426268 56.009497869018190385759 60.54982903015822870
58.009497869018190385759 608.82228535001183900 58.009497869018190385759 57.03582782642443050
60.009497869018190385759 610.00140857437804698 60.009497869018190385759 53.69271065735075155
62.009497869018190385759 611.05988611546808897 62.009497869018190385759 50.50767683081997461
64.009497869018190385759 612.01169635142139214 64.009497869018190385759 47.48004417455283033
66.009497869018218807469 612.86728362353562716 66.009497869018218807469 44.63756583466253147
68.009497869018190385759 613.63696415526362671 68.009497869018190385759 41.95050706102720994
70.009497869018190385759 614.32981696656906934 70.009497869018190385759 39.37323256376014058
72.009497869018190385759 614.95327913988364799 72.009497869018190385759 36.97480321950460080
74.009497869018218807469 615.51503861328944822 74.009497869018218807469 34.68937269442637472
76.009497869018190385759 616.02136822655825199 76.009497869018190385759 32.52815341774535796
78.009497869018190385759 616.47780669762300931 78.009497869018190385759 30.48065167373315987
80.009497869018218807469 616.88950433065065226 80.009497869018218807469 28.55889492984938016
82.009497869018190385759 617.26076630617023966 82.009497869018190385759 26.73325946590024316
84.009497869018190385759 617.59545498975319333 84.009497869018190385759 24.95289317587875288
86.009497869018218807469 617.89749870329387704 86.009497869018218807469 23.32264015649387190
88.009497869018190385759 618.17008053541212576 88.009497869018190385759 21.73367122018996511
91.009497869018190385759 618.52987673387281120 91.009497869018190385759 19.53528393643095029
94.009497869018190385759 618.83872461290786759 94.009497869018190385759 17.49049854741464927
97.009497869018190385759 619.10318834465397231 97.009497869018190385759 15.64297434587976632
99.504748934509137825444 619.29401439708829002 99.504748934509137825444 13.29480211029096992
nan nan nan nan

