Time Pressure difference Time.1 Pressure.1 difference.1
(hr) (psi) (hr) (psi)
0.000200000000006639311 0.43306005283917876 0.000200000000006639311 0.34712053171553148
0.000399999999999067768 0.80980425671620893 0.000399999999999067768 0.73993659414872825
0.000600000000019917934 1.15640534967492692 0.000600000000019917934 1.01577512613938814
0.000799999999998135536 1.48147488964590157 0.000799999999998135536 1.27177066228328406
0.001007140329448930061 1.80044163873058571 0.001007140329448930061 1.51973698766889442
0.001267914553963578328 2.18133238101326210 0.001267914553963578328 1.81063885939780223
0.001596209851982166583 2.63426077098428957 0.001596209851982166583 2.14806497424876586
0.002009509145210586212 3.17053662135252745 0.002009509145210586212 2.53735087131356174
0.002529822128153114136 3.80272989507698611 0.002529822128153114136 2.98411578525338061
0.003184857364431081805 4.54473701056478507 0.003184857364431081805 3.49428630996560052
0.004009497869020606231 5.41185558466887251 0.004009497869020606231 4.07415011372954883
0.005047658755856332391 6.42087526818574084 0.005047658755856332391 4.73044355700768815
0.006354625877790454069 7.59019254759035444 0.006354625877790454069 5.47046956980624088
0.007999999999995566213 8.93995545631941901 0.007999999999995566213 6.30223680893398441
0.010071403294347192059 10.49224188514159373 0.010071403294347192059 7.23462500670453057
0.012679145539706837553 12.27127962940907757 0.012679145539706837553 8.27762165325666643
0.015962098519764822413 14.30373255216295547 0.015962098519764822413 9.44268783291996883
0.020095091452077440408 16.61908748279044801 0.020095091452077440408 10.74317997111701217
0.025298221281346400247 19.25013229895864342 0.025298221281346400247 12.19444250586753320
0.031848573644282396344 22.23338227806975453 0.031848573644282396344 13.81292943340609547
0.040094978690177640601 25.60914926200151953 0.040094978690177640601 15.61389618167802595
0.050476587558421215363 29.42089939093333584 0.050476587558421215363 17.60791864067185486
0.063546258777947173257 33.71371212841633991 0.063546258777947173257 19.79760722797356820
0.079999999999998294697 38.53211603473167202 0.079999999999998294697 22.17618662861966783
0.100714032943528764008 43.91788278374210108 0.100714032943528764008 24.72823864326269927
0.126791455396883634421 49.90819103915042376 0.126791455396883634421 27.43375967627202172
0.159620985197506115583 56.53526958771650612 0.159620985197506115583 30.27496039858122145
0.200950914520774404082 63.82766436363766616 0.200950914520774404082 33.23718544817197795
0.252982212813464002465 71.81027060806884776 0.252982212813464002465 36.31583708082875006
0.318485736442795541734 80.50873158967837639 0.318485736442795541734 39.52611825527902312
0.400949786901833249431 89.95387239299526527 0.400949786901833249431 42.88053650426599006
0.504765875584169521062 100.17567225891509963 0.504765875584169521062 46.41553854701229653
0.635462587779429100010 111.21975916997561740 0.635462587779429100010 50.17289247858236223
0.800000000000011368684 123.13268242206646619 0.800000000000011368684 54.21093171563718016
1.007140329435344483500 135.98320452374503020 1.007140329435344483500 58.58999591843895161
1.267914553968893187630 149.84063407707193960 1.267914553968893187630 63.35225391470306278
1.596209851975103788391 164.78632975351581536 1.596209851975103788391 68.52957713553807650
2.009509145207672986544 180.89522020074642228 2.009509145207672986544 74.08617219434883339
2.529822128134725289783 198.22068398815662249 2.529822128134725289783 79.91753119109164061
3.184857364427998049905 216.77546623048289121 3.184857364427998049905 85.84451266803861813
4.009497869018190385759 236.51409737197633376 4.009497869018190385759 91.63051232026053583
5.009497869018204596614 256.62023651205817032 5.009497869018204596614 96.84359005714105706
6.009497869018190385759 273.67669957309527717 6.009497869018190385759 100.67245714532651846
7.009497869018190385759 288.44668512510565961 7.009497869018190385759 103.48353473047697548
8.009497869018204596614 301.42274685656474276 8.009497869018204596614 105.51224101876637462
9.009497869018190385759 312.95097556607993283 9.009497869018190385759 106.91585387387739559
10.009497869018190385759 323.28889441728927068 10.009497869018190385759 107.82632339122105236
11.009497869018204596614 332.62592979104732649 11.009497869018204596614 108.47099142189981080
12.009497869018190385759 341.11098043954530112 12.009497869018190385759 108.80838865584006214
13.009497869018190385759 348.86145889891560046 13.009497869018190385759 108.89764234028486101
14.009497869018204596614 355.97238062678587767 14.009497869018204596614 108.78250047683810919
15.009497869018190385759 362.52193289705718371 15.009497869018190385759 108.46837124338853187
16.009497869018190385759 368.57551452162226724 16.009497869018190385759 107.96684954293553460
17.009497869018190385759 374.18166537866045473 17.009497869018190385759 107.20269402590473362
18.009497869018204596614 379.38477910359142697 18.009497869018204596614 106.31846383042238813
19.009497869018190385759 384.22170827563917328 19.009497869018190385759 105.15669563294328270
20.009497869018190385759 388.72264950154465168 20.009497869018190385759 104.01337940861348841
21.009497869018204596614 392.91435940809611793 21.009497869018204596614 102.79276144962051376
22.009497869018190385759 396.82636553664224266 22.009497869018190385759 101.51333637577540969
23.009497869018190385759 400.48906943767769917 23.009497869018190385759 100.14360572408260452
24.009497869018204596614 403.92289384207998637 24.009497869018204596614 98.76976656053183490
25.009497869018190385759 407.14631634042638098 25.009497869018190385759 97.32160713971970267
26.009497869018190385759 410.17607899626915469 26.009497869018190385759 95.65631403981302583
27.009497869018204596614 413.02586493150579372 27.009497869018204596614 93.95398460415204056
28.009497869018190385759 415.69961919076672530 28.009497869018190385759 92.18263887902453746
29.009497869018190385759 418.20406443321138568 29.009497869018190385759 90.38763813432557015
30.009497869018190385759 420.55249725644347336 30.009497869018190385759 88.58883724687039773
31.009497869018190385759 422.75052557406820597 31.009497869018190385759 86.74120785551463086
32.009497869018190385759 424.81728782895390850 32.009497869018190385759 84.88605407247349888
33.009497869018190385759 426.76813836370581612 33.009497869018190385759 83.06198895151699446
34.009497869018190385759 428.61075950901039278 34.009497869018190385759 81.22276005814137534
35.009497869018190385759 430.35003296263465700 35.009497869018190385759 79.30974474003379271
36.009497869018190385759 431.99255261591611088 36.009497869018190385759 77.52973262935651633
37.009497869018190385759 433.54213652547917945 37.009497869018190385759 75.76198113476388585
38.009497869018190385759 435.00232271591073641 38.009497869018190385759 73.97879606966830579
39.009497869018190385759 436.37636009900415957 39.009497869018190385759 72.15944470901754926
40.009497869018190385759 437.67216587512439219 40.009497869018190385759 70.26823122278834433
41.009497869018190385759 438.89475845304343693 41.009497869018190385759 68.52034839692831270
42.009497869018190385759 440.04872803408380832 42.009497869018190385759 66.72754718257412776
43.009497869018190385759 441.13855719078452466 43.009497869018190385759 64.99401388945584301
44.009497869018190385759 442.16821307292599386 44.009497869018190385759 63.24705049354752617
46.009497869018190385759 444.06110610637676928 46.009497869018190385759 59.87719698575359928
48.009497869018190385759 445.75297008769450713 48.009497869018190385759 56.65601444959080624
50.009497869018218807469 447.26554598317267164 50.009497869018218807469 53.53756212401913217
52.009497869018190385759 448.61965239571412667 52.009497869018190385759 50.53783459391415533
54.009497869018190385759 449.83236571213569732 54.009497869018190385759 47.68107791769047310
56.009497869018190385759 450.91948793621031655 56.009497869018190385759 44.94271319422245625
58.009497869018190385759 451.89434545072475657 58.009497869018190385759 42.33446886400476217
60.009497869018190385759 452.76954192513494490 60.009497869018190385759 39.85306208695962482
62.009497869018190385759 453.55518993296084318 62.009497869018190385759 37.48899163337711826
64.009497869018190385759 454.26166483363260795 64.009497869018190385759 35.24175116536021335
66.009497869018218807469 454.89671887092981706 66.009497869018218807469 33.13194027346073511
68.009497869018190385759 455.46800919400232033 68.009497869018190385759 31.13748853455718901
70.009497869018190385759 455.98227464583050050 70.009497869018190385759 29.22452345424678555
72.009497869018190385759 456.44503535203767797 72.009497869018190385759 27.44430501495448382
74.009497869018218807469 456.86199763420773934 74.009497869018218807469 25.74795920755752121
76.009497869018190385759 457.23781746649075330 76.009497869018190385759 24.14380838405443441
78.009497869018190385759 457.57660592592060311 78.009497869018190385759 22.62406365281864851
80.009497869018218807469 457.88218579196262681 80.009497869018218807469 21.19765232263283394
82.009497869018190385759 458.15775255660844323 82.009497869018190385759 19.84258638161091781
84.009497869018190385759 458.40617303535378824 84.009497869018190385759 18.52112118782408601
86.009497869018218807469 458.63036299934225326 86.009497869018218807469 17.31107658393697690
88.009497869018190385759 458.83268507521052015 88.009497869018190385759 16.13167481975913731
91.009497869018190385759 459.09974144208689495 91.009497869018190385759 14.49993628694516978
94.009497869018190385759 459.32898175325613011 94.009497869018190385759 12.98220775237698277
97.009497869018190385759 459.52527822240426758 97.009497869018190385759 11.61089503954321600
99.504748934509137825444 459.66691760738530093 99.504748934509137825444 9.86797960930904772
nan nan nan nan

