Time Pressure difference Time.1 Pressure.1 difference.1
(hr) (psi) (hr) (psi)
0.000200000000006639311 0.69206059891019889 0.000200000000006639311 0.55472316483157280
0.000399999999999067768 1.29412448742107977 0.000399999999999067768 1.18247102023124739
0.000600000000019917934 1.84801755237440091 0.000600000000019917934 1.62328050704590310
0.000799999999998135536 2.36750167252094235 0.000799999999998135536 2.03237948281283654
0.001007140329448930061 2.87723310112251163 0.001007140329448930061 2.42864721180527532
0.001267914553963578328 3.48592345132987580 0.001267914553963578328 2.89352898109552381
0.001596209851982166583 4.20973505845399298 0.001596209851982166583 3.43275978199883181
0.002009509145210586212 5.06674180325468182 0.002009509145210586212 4.05486618341749239
0.002529822128153114136 6.07703137573396202 0.002529822128153114136 4.76882811984221888
0.003184857364431081805 7.26281123553278984 0.003184857364431081805 5.58411670756560596
0.004009497869020606231 8.64852805652871304 0.004009497869020606231 6.51078008528484187
0.005047658755856332391 10.26101288838686010 0.005047658755856332391 7.55958343354604878
0.006354625877790454069 12.12966461785339689 0.006354625877790454069 8.74219735110515117
0.007999999999995566213 14.28668122762299397 0.007999999999995566213 10.07142023807135267
0.010071403294347192059 16.76734474892402460 0.010071403294347192059 11.56144253483006956
0.012679145539706837553 19.61037291259264137 0.012679145539706837553 13.22822495713364432
0.015962098519764822413 22.85837645795816542 0.015962098519764822413 15.09008312849268307
0.020095091452077440408 26.55847742426640323 0.020095091452077440408 17.16836156155998694
0.025298221281346400247 30.76307315942908716 0.025298221281346400247 19.48758175374972623
0.031848573644282396344 35.53051765980922738 0.031848573644282396344 22.07403835499302147
0.040094978690177640601 40.92523210036899428 0.040094978690177640601 24.95211061830861610
0.050476587558421215363 47.01667844789025708 0.050476587558421215363 28.13869956403187444
0.063546258777947173257 53.87689687402868799 0.063546258777947173257 31.63797682412496215
0.079999999999998294697 61.57704716804386180 0.079999999999998294697 35.43911496599348965
0.100714032943528764008 70.18388341967788335 0.100714032943528764008 39.51747461640373160
0.126791455396883634421 79.75681976352977642 0.126791455396883634421 43.84108861449259109
0.159620985197506115583 90.34736008069164370 0.159620985197506115583 48.38152835400278917
0.200950914520774404082 102.00112279333737320 0.200950914520774404082 53.11537352971534887
0.252982212813464002465 114.75789225791065462 0.252982212813464002465 58.03527662113147301
0.318485736442795541734 128.65864823173683362 0.318485736442795541734 63.16553303174816136
0.400949786901833249431 143.75265138044582613 0.400949786901833249431 68.52613068366622429
0.504765875584169521062 160.08781065170674651 0.504765875584169521062 74.17531401242801792
0.635462587779429100010 177.73704278931796807 0.635462587779429100010 80.17983138860267900
0.800000000000011368684 196.77473686098721828 0.800000000000011368684 86.63290373849415005
1.007140329435344483500 217.31078021961826607 1.007140329435344483500 93.63095810760179916
1.267914553968893187630 239.45593291416318493 1.267914553968893187630 101.24138326561872248
1.596209851975103788391 263.34021185690471611 1.596209851975103788391 109.51511201402708195
2.009509145207672986544 289.08335832723787462 2.009509145207672986544 118.39494398903977412
2.529822128134725289783 316.77067505502839140 2.529822128134725289783 127.71386817354517973
3.184857364427998049905 346.42252963520894582 3.184857364427998049905 137.18560384570801602
4.009497869018190385759 377.96625850119693268 4.009497869018190385759 146.43204058896941433
5.009497869018204596614 410.09729114627953095 5.009497869018204596614 154.76290758327687058
6.009497869018190385759 437.35472568433550578 6.009497869018190385759 160.88170804253144297
7.009497869018190385759 460.95820741857721714 7.009497869018190385759 165.37400887796479765
8.009497869018204596614 481.69487198621436619 8.009497869018204596614 168.61602503642086504
9.009497869018190385759 500.11779696572898501 9.009497869018190385759 170.85909766982979363
10.009497869018190385759 516.63852258968734077 10.009497869018190385759 172.31409236474874547
11.009497869018204596614 531.55976561463182861 11.009497869018204596614 173.34431748129972561
12.009497869018190385759 545.11947677959494740 12.009497869018190385759 173.88350212846464160
13.009497869018190385759 557.50528962302598757 13.009497869018190385759 174.02613582997292951
14.009497869018204596614 568.86904556756462625 14.009497869018204596614 173.84213098710139889
15.009497869018190385759 579.33569340783742518 15.009497869018190385759 173.34013025068841785
16.009497869018190385759 589.00974507153136983 16.009497869018190385759 172.53866309594519635
17.009497869018190385759 597.96877071766641620 17.009497869018190385759 171.31748852371271141
18.009497869018204596614 606.28371451602879461 18.009497869018204596614 169.90442612128592259
19.009497869018190385759 614.01346949515311735 19.009497869018190385759 168.04783835875500131
20.009497869018190385759 621.20629196870652322 20.009497869018190385759 166.22073815460097990
21.009497869018204596614 627.90494091904747620 21.009497869018204596614 164.27010431016526582
22.009497869018190385759 634.15660344601667475 22.009497869018190385759 162.22549253620698551
23.009497869018190385759 640.00986337789652225 23.009497869018190385759 160.03656606067221446
24.009497869018204596614 645.49735768332391217 24.009497869018204596614 157.84107389255407838
25.009497869018190385759 650.64861485913797878 25.009497869018190385759 155.52681269595080948
26.009497869018190385759 655.49038990722112885 26.009497869018190385759 152.86555652021567653
27.009497869018204596614 660.04454942430345454 27.009497869018204596614 150.14511366001147508
28.009497869018190385759 664.31739787077515302 28.009497869018190385759 147.31437788705849812
29.009497869018190385759 668.31967853153071246 29.009497869018190385759 144.44583971948489420
30.009497869018190385759 672.07264031013630756 30.009497869018190385759 141.57122865496654640
31.009497869018190385759 675.58524504923445875 31.009497869018190385759 138.61858618710860469
32.009497869018190385759 678.88807733437329262 32.009497869018190385759 135.65391920906535006
33.009497869018190385759 682.00567449119546382 33.009497869018190385759 132.73893411223133398
34.009497869018190385759 684.95031342758238679 34.009497869018190385759 129.79971623439311657
35.009497869018190385759 687.72979544189524859 35.009497869018190385759 126.74258243021478165
36.009497869018190385759 690.35465803893987413 36.009497869018190385759 123.89799716009707709
37.009497869018190385759 692.83100274328990054 37.009497869018190385759 121.07300522179308189
38.009497869018190385759 695.16448356851333301 38.009497869018190385759 118.22334934606156764
39.009497869018190385759 697.36029250548244818 39.009497869018190385759 115.31589717164543174
40.009497869018190385759 699.43108180043986977 40.009497869018190385759 112.29360423706046390
41.009497869018190385759 701.38487122560320586 41.009497869018190385759 109.50036383689187858
42.009497869018190385759 703.22899624739443425 42.009497869018190385759 106.63534067440302522
43.009497869018190385759 704.97062033382599111 43.009497869018190385759 103.86503184263520438
44.009497869018190385759 706.61608327088174519 44.009497869018190385759 101.07326075656952469
46.009497869018190385759 709.64106024073714707 46.009497869018190385759 95.68799646919465829
48.009497869018190385759 712.34477856457931466 48.009497869018190385759 90.54031891140394350
50.009497869018218807469 714.76198184449140172 50.009497869018218807469 85.55681149722671819
52.009497869018190385759 716.92593968061066789 52.009497869018190385759 80.76303470474384483
54.009497869018190385759 718.86394134704642056 54.009497869018190385759 76.19773545045713092
56.009497869018190385759 720.60123956365441700 56.009497869018190385759 71.82163491166738822
58.009497869018190385759 722.15913083283021479 58.009497869018190385759 67.65347596594973822
60.009497869018190385759 723.55775670994228221 60.009497869018190385759 63.68801240263324104
62.009497869018190385759 724.81327780283447737 62.009497869018190385759 59.91006058452870064
64.009497869018190385759 725.94227466982442820 64.009497869018190385759 56.31881134785861320
66.009497869018218807469 726.95713594486210241 66.009497869018218807469 52.94718429553049788
68.009497869018190385759 727.87009829395231009 68.009497869018190385759 49.75990933014444551
70.009497869018190385759 728.69193086488030531 70.009497869018190385759 46.70285580951978943
72.009497869018190385759 729.43145520888344890 72.009497869018190385759 43.85794081167967562
74.009497869018218807469 730.09779043151525002 74.009497869018218807469 41.14706021272054670
76.009497869018190385759 730.69837710882927695 76.009497869018190385759 38.58351371985548184
78.009497869018190385759 731.23978503274133800 78.009497869018190385759 36.15485413328254083
80.009497869018218807469 731.72812327525855380 80.009497869018218807469 33.87534792395021555
82.009497869018190385759 732.16849845863146129 82.009497869018190385759 31.70985669344253211
84.009497869018190385759 732.56549195681941455 84.009497869018190385759 29.59806183391823353
86.009497869018218807469 732.92376337837004030 86.009497869018218807469 27.66432495889607068
88.009497869018190385759 733.24708836778006571 88.009497869018190385759 25.77955750939000623
91.009497869018190385759 733.67386333349577399 91.009497869018190385759 23.17192390550401626
94.009497869018190385759 734.04020556710065648 94.009497869018190385759 20.74648634383074253
97.009497869018190385759 734.35390121072316560 97.009497869018190385759 18.55503162267838491
99.504748934509137825444 734.58025096742926507 99.504748934509137825444 15.76972947211124598
nan nan nan nan

