Time Pressure difference Time.1 Pressure.1 difference.1
(hr) (psi) (hr) (psi)
0.000200000000006639311 0.70389664537043373 0.000200000000006639311 0.56421038193633810
0.000399999999999067768 1.31625740118985091 0.000399999999999067768 1.20269436765974969
0.000600000000019917934 1.87962348636873178 0.000600000000019917934 1.65104284972173865
0.000799999999998135536 2.40799214378136073 0.000799999999998135536 2.06713848805209022
0.001007140329448930061 2.92644131311354050 0.001007140329448930061 2.47018343172548605
0.001267914553963578328 3.54554186045724773 0.001267914553963578328 2.94301589525912899
0.001596209851982166583 4.28173253933298437 0.001596209851982166583 3.49146895332074347
0.002009509145210586212 5.15339634113730760 0.002009509145210586212 4.12421500144374864
0.002529822128153114136 6.18096450791452234 0.002529822128153114136 4.85038755448740755
0.003184857364431081805 7.38702430495337126 0.003184857364431081805 5.67961970960646667
0.004009497869020606231 8.79644050819972634 0.004009497869020606231 6.62213145495269195
0.005047658755856332391 10.43650304844981491 0.005047658755856332391 7.68887208381796317
0.006354625877790454069 12.33711361031165232 0.006354625877790454069 8.89171179272364753
0.007999999999995566213 14.53102084620407197 0.007999999999995566213 10.24366786789752126
0.010071403294347192059 17.05411020237645303 0.010071403294347192059 11.75917344337343984
0.012679145539706837553 19.94576158413597611 0.012679145539706837553 13.45446220489146150
0.015962098519764822413 23.24931448591117089 0.015962098519764822413 15.34816302103229546
0.020095091452077440408 27.01269685707578461 0.020095091452077440408 17.46198545144582326
0.025298221281346400247 31.28920217724628117 0.025298221281346400247 19.82087037529272777
0.031848573644282396344 36.13818244875968588 0.031848573644282396344 22.45156214979672527
0.040094978690177640601 41.62516061717610683 0.040094978690177640601 25.37885697697184284
0.050476587558421215363 47.82078663060065082 0.050476587558421215363 28.61994492880907615
0.063546258777947173257 54.79833273605936483 0.063546258777947173257 32.17906898308886809
0.079999999999998294697 62.63017574134038767 0.079999999999998294697 36.04521652979821056
0.100714032943528764008 71.38421140572872048 0.100714032943528764008 40.19332679797201280
0.126791455396883634421 81.12087000093420386 0.126791455396883634421 44.59088590468008562
0.159620985197506115583 91.89253625913406154 0.159620985197506115583 49.20897904013764901
0.200950914520774404082 103.74560879684514703 0.200950914520774404082 54.02378535064608656
0.252982212813464002465 116.72055238707010005 0.252982212813464002465 59.02783165388724029
0.318485736442795541734 130.85904764817496471 0.318485736442795541734 64.24582886830722828
0.400949786901833249431 146.21119773202286751 0.400949786901833249431 69.69810676175710284
0.504765875584169521062 162.82573095460315926 0.504765875584169521062 75.44390590197657787
0.635462587779429100010 180.77681112676103226 0.635462587779429100010 81.55111623126491338
0.800000000000011368684 200.14009956384111888 0.800000000000011368684 88.11455299760319804
1.007140329435344483500 221.02736297991353354 1.007140329435344483500 95.23229240119258066
1.267914553968893187630 243.55125571048185407 1.267914553968893187630 102.97287573595626498
1.596209851975103788391 267.84401829711333676 1.596209851975103788391 111.38810688750642441
2.009509145207672986544 294.02743990828719234 2.009509145207672986544 120.41980721621651185
2.529822128134725289783 322.18828217367581601 2.529822128134725289783 129.89810937973254568
3.184857364427998049905 352.34726102736044595 3.184857364427998049905 139.53183650705312857
4.009497869018190385759 384.43047016570432106 4.009497869018190385759 148.93641150447493260
5.009497869018204596614 417.11102751397237398 5.009497869018204596614 157.40975811538521612
6.009497869018190385759 444.83463547974167795 6.009497869018190385759 163.63320606740370522
7.009497869018190385759 468.84179849112831562 7.009497869018190385759 168.20233699760805735
8.009497869018204596614 489.93311426364459749 8.009497869018204596614 171.49980011249644463
9.009497869018190385759 508.67111944904632992 9.009497869018190385759 173.78123515512871222
10.009497869018190385759 525.47439269433994014 10.009497869018190385759 175.26111406515190083
11.009497869018204596614 540.65082800441928157 11.009497869018204596614 176.30895872594970797
12.009497869018190385759 554.44244569836064329 12.009497869018190385759 176.85736484092331011
13.009497869018190385759 567.04008833891271024 13.009497869018190385759 177.00243795181350492
14.009497869018204596614 578.59819423421311058 14.009497869018204596614 176.81528614482851935
15.009497869018190385759 589.24384913010419496 15.009497869018190385759 176.30469988274245452
16.009497869018190385759 599.08335238160782410 16.009497869018190385759 175.48952554326015729
17.009497869018190385759 608.19560080036285399 17.009497869018190385759 174.24746569162329024
18.009497869018204596614 616.65275188702719333 18.009497869018204596614 172.81023622597592748
19.009497869018190385759 624.51470589496966568 19.009497869018190385759 170.92189595643998246
20.009497869018190385759 631.83054444704453090 20.009497869018190385759 169.06354755965955405
21.009497869018204596614 638.64375781605338034 21.009497869018204596614 167.07955277422240670
22.009497869018190385759 645.00234012467092271 22.009497869018190385759 164.99997279085039281
23.009497869018190385759 650.95570611172377085 23.009497869018190385759 162.77360994702172547
24.009497869018204596614 656.53705092338088889 24.009497869018204596614 160.54056912009272651
25.009497869018190385759 661.77640807101454357 25.009497869018190385759 158.18672800362801922
26.009497869018190385759 666.70099013702269986 26.009497869018190385759 155.47995738625556328
27.009497869018204596614 671.33303769413555528 27.009497869018204596614 152.71298783729537263
28.009497869018190385759 675.67896302550661858 28.009497869018190385759 149.83383907828587667
29.009497869018190385759 679.74969315430337247 29.009497869018190385759 146.91624140482824146
30.009497869018190385759 683.56684039592335012 30.009497869018190385759 143.99246697200317158
31.009497869018190385759 687.13951986395977656 31.009497869018190385759 140.98932659473518925
32.009497869018190385759 690.49883922037372486 32.009497869018190385759 137.97395605670530472
33.009497869018190385759 693.66975544325816827 33.009497869018190385759 135.00911709000592964
34.009497869018190385759 696.66475540773228659 34.009497869018190385759 132.01963089836161203
35.009497869018190385759 699.49177383476467185 35.009497869018190385759 128.91021210960477106
36.009497869018190385759 702.16152844805662880 36.009497869018190385759 126.01697699080295934
37.009497869018190385759 704.68022512421134707 37.009497869018190385759 123.14367030103905165
38.009497869018190385759 707.05361457521826196 38.009497869018190385759 120.24527785600427876
39.009497869018190385759 709.28697758857435929 39.009497869018190385759 117.28810064439993255
40.009497869018190385759 711.39318279702695236 40.009497869018190385759 114.21411859523958299
41.009497869018190385759 713.38038713187609119 41.009497869018190385759 111.37310647796546448
42.009497869018190385759 715.25605151520710479 42.009497869018190385759 108.45908392537370446
43.009497869018190385759 717.02746192907261502 43.009497869018190385759 105.64139556630199479
44.009497869018190385759 718.70106658637973851 44.009497869018190385759 102.80187789224524408
46.009497869018190385759 721.77777857483420121 46.009497869018190385759 97.32451149935191381
48.009497869018190385759 724.52773755411431011 48.009497869018190385759 92.08879519057283858
50.009497869018218807469 726.98628133277736652 50.009497869018218807469 87.02005676428190384
52.009497869018190385759 729.18724850814635374 52.009497869018190385759 82.14429384959359481
54.009497869018190385759 731.15839507229770788 54.009497869018190385759 77.50091603663194917
56.009497869018190385759 732.92540563265049514 56.009497869018190385759 73.04997273208826414
58.009497869018190385759 734.50994091749635118 58.009497869018190385759 68.81052736576980067
60.009497869018190385759 735.93248695548470550 60.009497869018190385759 64.77724400308068198
62.009497869018190385759 737.20948074312445897 62.009497869018190385759 60.93467932692004041
64.009497869018190385759 738.35778640965042996 64.009497869018190385759 57.28201033469321857
66.009497869018218807469 739.39000446705802005 66.009497869018218807469 53.85271964062508232
68.009497869018190385759 740.31858086034787902 68.009497869018190385759 50.61093393639440308
70.009497869018190385759 741.15446891790134032 70.009497869018190385759 47.50159680425000630
72.009497869018190385759 741.90664106255644583 72.009497869018190385759 44.60802631851927202
74.009497869018218807469 742.58437236042448149 74.009497869018218807469 41.85078257048337491
76.009497869018190385759 743.19523064087161401 76.009497869018190385759 39.24339272713670823
78.009497869018190385759 743.74589805644006901 78.009497869018190385759 36.77319670900266146
80.009497869018218807469 744.24258816024791940 80.009497869018218807469 34.45470498099966505
82.009497869018190385759 744.69049491114333250 82.009497869018190385759 32.25217818618752119
84.009497869018190385759 745.09427803656376454 84.009497869018190385759 30.10426611075586578
86.009497869018218807469 745.45867683655137625 86.009497869018218807469 28.13745727710657007
88.009497869018190385759 745.78753152899969336 88.009497869018190385759 26.22045537423872830
91.009497869018190385759 746.22160546294196592 91.009497869018190385759 23.56822441495428677
94.009497869018190385759 746.59421310698053276 94.009497869018190385759 21.10130552677351901
97.009497869018190385759 746.91327376664094118 97.009497869018190385759 18.87237119771413418
99.504748934509137825444 747.14349469624846733 99.504748934509137825444 16.03943309487371138
nan nan nan nan

