Time Pressure difference Time.1 Pressure.1 difference.1
(hr) (psi) (hr) (psi)
0.000200000000006639311 0.74149349883235605 0.000200000000006639311 0.59434624803382807
0.000399999999999067768 1.38656195080829980 0.000399999999999067768 1.26693323596205087
0.000600000000019917934 1.98001880611542957 0.000600000000019917934 1.73922911469203911
0.000799999999998135536 2.53660893484386696 0.000799999999998135536 2.17754944587089661
0.001007140329448930061 3.08274975120269135 0.001007140329448930061 2.60212201264850940
0.001267914553963578328 3.73491798356772398 0.001267914553963578328 3.10020962260234656
0.001596209851982166583 4.51043041977213566 0.001596209851982166583 3.67795690928446239
0.002009509145210586212 5.42865193205858798 0.002009509145210586212 4.34449948223302851
0.002529822128153114136 6.51110504542924584 0.002529822128153114136 5.10945869983094880
0.003184857364431081805 7.78158346664227540 0.003184857364431081805 5.98298218667743509
0.004009497869020606231 9.26628006056647813 0.004009497869020606231 6.97583580566233064
0.005047658755856332391 10.99394238041449157 0.005047658755856332391 8.09955367879933696
0.006354625877790454069 12.99606923341435305 0.006354625877790454069 9.36664001904123111
0.007999999999995566213 15.30715845816749443 0.007999999999995566213 10.79080739793359101
0.010071403294347192059 17.96501223099003042 0.010071403294347192059 12.38725985874650348
0.012679145539706837553 21.01111383492068541 0.012679145539706837553 14.17309816835747505
0.015962098519764822413 24.49111763352660276 0.015962098519764822413 16.16794620909930202
0.020095091452077440408 28.45551152599971800 0.020095091452077440408 18.39467310167141179
0.025298221281346400247 32.96043552795973852 0.025298221281346400247 20.87955187901755849
0.031848573644282396344 38.06841177836702172 0.031848573644282396344 23.65075538034966485
0.040094978690177640601 43.84846296468106175 0.040094978690177640601 26.73440423390208665
0.050476587558421215363 50.37501262273956115 0.050476587558421215363 30.14860667574843234
0.063546258777947173257 57.72524665074502082 0.063546258777947173257 33.89783231156246046
0.079999999999998294697 65.97540768004699885 0.079999999999998294697 37.97048032070731693
0.100714032943528764008 75.19701794965489228 0.100714032943528764008 42.34015137471828893
0.126791455396883634421 85.45373546092476147 0.126791455396883634421 46.97259494409919967
0.159620985197506115583 96.80074294359819476 0.159620985197506115583 51.83735180786013785
0.200950914520774404082 109.28691727857574278 0.200950914520774404082 56.90932878183787125
0.252982212813464002465 122.95488456204715533 0.252982212813464002465 62.18065352264086698
0.318485736442795541734 137.84855167686089317 0.318485736442795541734 67.67735681973017847
0.400949786901833249431 154.02069790762050161 0.400949786901833249431 73.42085430392810963
0.504765875584169521062 171.52265426968583029 0.504765875584169521062 79.47355072760144878
0.635462587779429100010 190.43254584569780263 0.635462587779429100010 85.90696220207431111
0.800000000000011368684 210.83007520820058289 0.800000000000011368684 92.82096829124373016
1.007140329435344483500 232.83297880673384839 1.007140329435344483500 100.31888368671620526
1.267914553968893187630 256.55992812231767175 1.267914553968893187630 108.47291064173434449
1.596209851975103788391 282.15022698954078351 1.596209851975103788391 117.33762001502901740
2.009509145207672986544 309.73216963632626175 2.009509145207672986544 126.85172570254260904
2.529822128134725289783 339.39715184467331710 2.529822128134725289783 136.83628732879842005
3.184857364427998049905 371.16699603772389082 3.184857364427998049905 146.98457554897288446
4.009497869018190385759 404.96384839413957479 4.009497869018190385759 156.89147205961009490
5.009497869018204596614 439.38995479958515489 5.009497869018204596614 165.81740098208237555
6.009497869018190385759 468.59434894750233980 6.009497869018190385759 172.37325861699795837
7.009497869018190385759 493.88379366276126348 7.009497869018190385759 177.18643808353368740
8.009497869018204596614 516.10164855665823325 8.009497869018204596614 180.66002682473663299
9.009497869018190385759 535.84049674899529236 9.009497869018190385759 183.06331893196048100
10.009497869018190385759 553.54127420323641218 10.009497869018190385759 184.62224181937367007
11.009497869018204596614 569.52832030139131803 11.009497869018204596614 185.72605444424968368
12.009497869018190385759 584.05658226385173748 12.009497869018190385759 186.30375228049786074
13.009497869018190385759 597.32709602467059540 13.009497869018190385759 186.45657410354240824
14.009497869018204596614 609.50254882239062226 14.009497869018204596614 186.25942605760866400
15.009497869018190385759 620.71681436554013089 15.009497869018190385759 185.72156812573760476
16.009497869018190385759 631.08186971949794497 16.009497869018190385759 184.86285331708415924
17.009497869018190385759 640.68082576892822999 17.009497869018190385759 183.55445198969218268
18.009497869018204596614 649.58969412431656565 18.009497869018204596614 182.04045655852064556
19.009497869018190385759 657.87157445909269882 19.009497869018190385759 180.05125538438036870
20.009497869018190385759 665.57816996647113683 20.009497869018190385759 178.09364802278676621
21.009497869018204596614 672.75529384183664661 21.009497869018204596614 176.00368318946277668
22.009497869018190385759 679.45350369216077979 22.009497869018190385759 173.81302771736463342
23.009497869018190385759 685.72485361917483715 23.009497869018190385759 171.46774935072022572
24.009497869018204596614 691.60431180356135883 24.009497869018204596614 169.11543631345080030
25.009497869018190385759 697.12351592050492854 25.009497869018190385759 166.63587074566154911
26.009497869018190385759 702.31113204345115264 26.009497869018190385759 163.78452484308820658
27.009497869018204596614 707.19058866889645287 27.009497869018204596614 160.86976463572659668
28.009497869018190385759 711.76864057583043177 28.009497869018190385759 157.83683345041984580
29.009497869018190385759 716.05679842664005719 29.009497869018190385759 154.76339969944811514
30.009497869018190385759 720.07782890371743179 30.009497869018190385759 151.68345927317844257
31.009497869018190385759 723.84133398132257753 31.009497869018190385759 148.51991377190205412
32.009497869018190385759 727.38008285825719668 32.009497869018190385759 145.34348486685573221
33.009497869018190385759 730.72036552628082973 33.009497869018190385759 142.22028654881930265
34.009497869018190385759 733.87533581526690796 34.009497869018190385759 139.07112453684979414
35.009497869018190385759 736.85335225917344815 35.009497869018190385759 135.79562403237298440
36.009497869018190385759 739.66570504172136680 36.009497869018190385759 132.74785410010397868
37.009497869018190385759 742.31893151066776682 37.009497869018190385759 129.72107702334974988
38.009497869018190385759 744.81908953769288928 38.009497869018190385759 126.66787429935168063
39.009497869018190385759 747.17174197015981463 39.009497869018190385759 123.55274696962011660
40.009497869018190385759 749.39044478618563971 40.009497869018190385759 120.31457596827907253
41.009497869018190385759 751.48379059886065079 41.009497869018190385759 117.32181839666985468
42.009497869018190385759 753.45963883649403670 42.009497869018190385759 114.25215072257468307
43.009497869018190385759 755.32566464338503920 43.009497869018190385759 111.28396268853771289
44.009497869018190385759 757.08866064737333090 44.009497869018190385759 108.29277938203877341
46.009497869018190385759 760.32970740078974359 46.009497869018190385759 102.52285335985142467
48.009497869018190385759 763.22654846204920887 48.009497869018190385759 97.00748454793280473
50.009497869018218807469 765.81640911909789793 50.009497869018218807469 91.66801231845718689
52.009497869018190385759 768.13493537208296402 52.009497869018190385759 86.53182289793983273
54.009497869018190385759 770.21136572897830774 54.009497869018190385759 81.64043083977549031
56.009497869018190385759 772.07275667534395325 56.009497869018190385759 76.95175169107220370
58.009497869018190385759 773.74192589231802231 58.009497869018190385759 72.48586710637472663
60.009497869018190385759 775.24045361779542418 60.009497869018190385759 68.23715614567846899
62.009497869018190385759 776.58565478875129884 62.009497869018190385759 64.18935062628075627
64.009497869018190385759 777.79529428909768285 64.009497869018190385759 60.34158358699136926
66.009497869018218807469 778.88264565520944416 66.009497869018218807469 56.72912603092553496
68.009497869018190385759 779.86081960066314878 68.009497869018190385759 53.31418856801190032
70.009497869018190385759 780.74135449808602516 70.009497869018190385759 50.03877408162833973
72.009497869018190385759 781.53370200951792413 72.009497869018190385759 46.99065086965679683
74.009497869018218807469 782.24763260519500818 74.009497869018218807469 44.08613594220058474
76.009497869018190385759 782.89111833088850290 76.009497869018190385759 41.33947898555944533
78.009497869018190385759 783.47119824936578425 78.009497869018190385759 38.73734371423128664
80.009497869018218807469 783.99441779491996840 80.009497869018218807469 36.29501563280380338
82.009497869018190385759 784.46624834853378161 82.009497869018190385759 33.97484645725985786
84.009497869018190385759 784.89159852516365845 84.009497869018190385759 31.71220910776953161
86.009497869018218807469 785.27546076253929641 86.009497869018218807469 29.64034817024579027
88.009497869018190385759 785.62188039405009476 88.009497869018190385759 27.62095447434643702
91.009497869018190385759 786.07913928588834551 91.009497869018190385759 24.82706132732573323
94.009497869018190385759 786.47164882189349555 94.009497869018190385759 22.22837822553293563
97.009497869018190385759 786.80775129720336736 97.009497869018190385759 19.88039102429826954
99.504748934509137825444 787.05026889367411513 99.504748934509137825444 16.89613872011918971
nan nan nan nan

