Time Pressure difference Time.1 Pressure.1 difference.1
(hr) (psi) (hr) (psi)
0.000200000000006639311 0.71642892985774109 0.000200000000006639311 0.57425567063550154
0.000399999999999067768 1.33969225106266721 0.000399999999999067768 1.22410732376051667
0.000600000000019917934 1.91308859295096445 0.000600000000019917934 1.68043827137850532
0.000799999999998135536 2.45086440746886280 0.000799999999998135536 2.10394214065835916
0.001007140329448930061 2.97854412580992411 0.001007140329448930061 2.51416295869982731
0.001267914553963578328 3.60866723482740648 0.001267914553963578328 2.99541380437353499
0.001596209851982166583 4.35796516614603480 0.001596209851982166583 3.55363160530865008
0.002009509145210586212 5.24514820477773380 0.002009509145210586212 4.19764316170684104
0.002529822128153114136 6.29101135375276410 0.002529822128153114136 4.93674460293525463
0.003184857364431081805 7.51854402551633960 0.003184857364431081805 5.78074053529678977
0.004009497869020606231 8.95305369232197812 0.004009497869020606231 6.74003290518923759
0.005047658755856332391 10.62231615910470595 0.005047658755856332391 7.82576594881175502
0.006354625877790454069 12.55676548467921982 0.006354625877790454069 9.05002120149617717
0.007999999999995566213 14.78973338352521161 0.007999999999995566213 10.42604771124287844
0.010071403294347192059 17.35774421191430861 0.010071403294347192059 11.96853558183112831
0.012679145539706837553 20.30087900106421372 0.012679145539706837553 13.69400752604679994
0.015962098519764822413 23.66324886844964936 0.015962098519764822413 15.62142408372129943
0.020095091452077440408 27.49363508005043144 0.020095091452077440408 17.77288133485435040
0.025298221281346400247 31.84627996081743362 0.025298221281346400247 20.17376420986767371
0.031848573644282396344 36.78159222529546213 0.031848573644282396344 22.85129322664770868
0.040094978690177640601 42.36626139967776083 0.040094978690177640601 25.83070606261525626
0.050476587558421215363 48.67219529464695427 0.050476587558421215363 29.12949884445552939
0.063546258777947173257 55.77397070762124542 0.063546258777947173257 32.75199009258006555
0.079999999999998294697 63.74525305424258903 0.079999999999998294697 36.68697112676790795
0.100714032943528764008 72.65514692037076827 0.100714032943528764008 40.90893499022077151
0.126791455396883634421 82.56515848759772780 0.126791455396883634421 45.38478891781979740
0.159620985197506115583 93.52860515395543928 0.159620985197506115583 50.08510329604514055
0.200950914520774404082 105.59271162408869316 0.200950914520774404082 54.98563316104335286
0.252982212813464002465 118.79866311206244234 0.252982212813464002465 60.07877227680511822
0.318485736442795541734 133.18888232440363595 0.318485736442795541734 65.38967151878154027
0.400949786901833249431 148.81436445722206940 0.400949786901833249431 70.93902260914742897
0.504765875584169521062 165.72470539296404013 0.504765875584169521062 76.78712084385152536
0.635462587779429100010 183.99538936640661291 0.635462587779429100010 83.00306488820137929
0.800000000000011368684 203.70342477862760688 0.800000000000011368684 89.68335809548337068
1.007140329435344483500 224.96256825552032410 1.007140329435344483500 96.92782282970044605
1.267914553968893187630 247.88747984776045996 1.267914553968893187630 104.80622070454894867
1.596209851975103788391 272.61275452792250462 1.596209851975103788391 113.37127793001396014
2.009509145207672986544 299.26234981763354881 2.009509145207672986544 122.56378004499188705
2.529822128134725289783 327.92457206400831637 2.529822128134725289783 132.21083536275452275
3.184857364427998049905 358.62050603081490863 3.184857364427998049905 142.01608285435969492
4.009497869018190385759 391.27492957518273897 4.009497869018190385759 151.58809835618663442
5.009497869018204596614 424.53733660917669113 5.009497869018204596614 160.21230573761761207
6.009497869018190385759 452.75453996899523190 6.009497869018190385759 166.54655691726844680
7.009497869018190385759 477.18913021500600280 7.009497869018190385759 171.19703735958327684
8.009497869018204596614 498.65595902798253292 8.009497869018204596614 174.55320901657651689
9.009497869018190385759 517.72757854902931740 9.009497869018190385759 176.87526308073930181
10.009497869018190385759 534.83001986397209748 10.009497869018190385759 178.38148998322580496
11.009497869018204596614 550.27665877007655126 11.009497869018204596614 179.44799063204970935
12.009497869018190385759 564.31382455352422767 12.009497869018190385759 180.00616065411483646
13.009497869018190385759 577.13575756749867196 13.009497869018190385759 180.15381666905648217
14.009497869018204596614 588.89964576360557658 14.009497869018204596614 179.96333278242187248
15.009497869018190385759 599.73483754191613571 15.009497869018190385759 179.44365596374083793
16.009497869018190385759 609.74952482757123562 16.009497869018190385759 178.61396813453481514
17.009497869018190385759 619.02400912321797932 17.009497869018190385759 177.34979445764625439
18.009497869018204596614 627.63173263279031744 18.009497869018204596614 175.88697633682414789
19.009497869018190385759 635.63366208301067672 19.009497869018190385759 173.96501576575343506
20.009497869018190385759 643.07975295352014200 20.009497869018190385759 172.07358104736863424
21.009497869018204596614 650.01426982464784032 21.009497869018204596614 170.05426291263586336
22.009497869018190385759 656.48606131383417051 22.009497869018190385759 167.93765776635513021
23.009497869018190385759 662.54542194754071716 23.009497869018190385759 165.67165641492124450
24.009497869018204596614 668.22613788344096974 24.009497869018204596614 163.39885818454544619
25.009497869018190385759 673.55877735417800523 25.009497869018190385759 161.00310891763919585
26.009497869018190385759 678.57103743916547955 26.009497869018190385759 158.24814653853312052
27.009497869018204596614 683.28555468572244536 27.009497869018204596614 155.43191343677244731
28.009497869018190385759 687.70885554228118508 28.009497869018190385759 152.50150386899719024
29.009497869018190385759 691.85206157841560071 29.009497869018190385759 149.53196083636819935
30.009497869018190385759 695.73716989852152892 30.009497869018190385759 146.55613107239491910
31.009497869018190385759 699.37345790308074811 31.009497869018190385759 143.49952232045748701
32.009497869018190385759 702.79258709966825336 32.009497869018190385759 140.43046566008879950
33.009497869018190385759 706.01995880426568419 33.009497869018190385759 137.41284024294373012
34.009497869018190385759 709.06828221024386494 34.009497869018190385759 134.37012877785767273
35.009497869018190385759 711.94563330956759728 35.009497869018190385759 131.20534941719415656
36.009497869018190385759 714.66292064594483691 36.009497869018190385759 128.26060269390328017
37.009497869018190385759 717.22646058636337330 37.009497869018190385759 125.33613920847594159
38.009497869018190385759 719.64210622937639528 38.009497869018190385759 122.38614333712006044
39.009497869018190385759 721.91523238243610194 39.009497869018190385759 119.37631608613999390
40.009497869018190385759 724.05893679341318148 40.009497869018190385759 116.24760438625274617
41.009497869018190385759 726.08152162087094439 41.009497869018190385759 113.35601045086693262
42.009497869018190385759 727.99058062230278665 42.009497869018190385759 110.39010619110736400
43.009497869018190385759 729.79352950051008975 43.009497869018190385759 107.52225127371391977
44.009497869018190385759 731.49693127337752685 44.009497869018190385759 104.63217838884308719
46.009497869018190385759 734.62842151681945779 46.009497869018190385759 99.05729211951840796
48.009497869018190385759 737.42734119009276128 48.009497869018190385759 93.72835830969282256
50.009497869018218807469 739.92965726155091488 50.009497869018218807469 88.56937528234033152
52.009497869018190385759 742.16981079612514804 52.009497869018190385759 83.60680353237566464
54.009497869018190385759 744.17605195785790784 54.009497869018190385759 78.88075430434646762
56.009497869018190385759 745.97452264688160994 56.009497869018190385759 74.35056571841624873
58.009497869018190385759 747.58726924243694612 58.009497869018190385759 70.03564061263811880
60.009497869018190385759 749.03514250958824050 60.009497869018190385759 65.93054805061326817
62.009497869018190385759 750.33487209166662524 62.009497869018190385759 62.01956976004028377
64.009497869018190385759 751.50362236946614303 64.009497869018190385759 58.30186808545926169
66.009497869018218807469 752.55421819644186598 66.009497869018218807469 54.81152177072523557
68.009497869018190385759 753.49932710711959771 68.009497869018190385759 51.51201881360023549
70.009497869018190385759 754.35009744462945491 70.009497869018190385759 48.34732256337611744
72.009497869018190385759 755.11566137821034772 72.009497869018190385759 45.40223450223177792
74.009497869018218807469 755.80545910868124793 74.009497869018218807469 42.59590036105577582
76.009497869018190385759 756.42719320421053908 76.009497869018190385759 39.94208814661094920
78.009497869018190385759 756.98766478741538322 78.009497869018190385759 37.42791237741220556
80.009497869018218807469 757.49319803847197363 80.009497869018218807469 35.06814186493437546
82.009497869018190385759 757.94907939027336852 82.009497869018190385759 32.82640094321163104
84.009497869018190385759 758.36005153276369128 84.009497869018190385759 30.64024710976042343
86.009497869018218807469 758.73093814521405420 86.009497869018218807469 28.63842090815297681
88.009497869018190385759 759.06564781734982716 88.009497869018190385759 26.68728840760796217
91.009497869018190385759 759.50745007059072123 91.009497869018190385759 23.98783671907809989
94.009497869018190385759 759.88669167861826281 94.009497869018190385759 21.47699642635998885
97.009497869018190385759 760.21143294349508324 97.009497869018190385759 19.20837780657551264
99.504748934509137825444 760.44575276205705450 99.504748934509137825444 16.32500163662220416
nan nan nan nan

