Time Pressure difference Time.1 Pressure.1 difference.1
(hr) (psi) (hr) (psi)
0.000200000000006639311 0.54306566111665511 0.000200000000006639311 0.43529584363040924
0.000399999999999067768 1.01551016115537451 0.000399999999999067768 0.92789476436657237
0.000600000000019917934 1.45015461856341310 0.000600000000019917934 1.27380160512656393
0.000799999999998135536 1.85779809312508548 0.000799999999998135536 1.59482494627164240
0.001007140329448930061 2.25778855017661906 0.001007140329448930061 1.90577950222144343
0.001267914553963578328 2.73543288937354401 0.001267914553963578328 2.27057606162425385
0.001596209851982166583 3.30341382856550769 0.001596209851982166583 2.69371491947594466
0.002009509145210586212 3.97591409108516336 0.002009509145210586212 3.18188694473404876
0.002529822128153114136 4.76869665299043266 0.002529822128153114136 3.74213876607337115
0.003184857364431081805 5.69918789106194801 0.003184857364431081805 4.38190244658065708
0.004009497869020606231 6.78657131196418106 0.004009497869020606231 5.10906284358367913
0.005047658755856332391 8.05190146171202414 0.005047658755856332391 5.93206748306430409
0.006354625877790454069 9.51824788926121634 0.006354625877790454069 6.86007438014287452
0.007999999999995566213 11.21087661724943096 0.007999999999995566213 7.90312654496544731
0.010071403294347192059 13.15747374664058533 0.010071403294347192059 9.07235933316645315
0.012679145539706837553 15.38842140022360105 0.012679145539706837553 10.38029725006463089
0.015962098519764822413 17.93715657666737329 0.015962098519764822413 11.84131271652343287
0.020095091452077440408 20.84065632890120057 0.020095091452077440408 13.47215494770300737
0.025298221281346400247 24.14003728808318527 0.025298221281346400247 15.29206616491426907
0.031848573644282396344 27.88109031655049819 0.031848573644282396344 17.32167999687581172
0.040094978690177640601 32.11436724173824331 0.040094978690177640601 19.58012704454800712
0.050476587558421215363 36.89437544200643515 0.050476587558421215363 22.08066967801293856
0.063546258777947173257 42.27764543434847155 0.063546258777947173257 24.82658141128518281
0.079999999999998294697 48.32001689242878939 0.079999999999998294697 27.80936586868704552
0.100714032943528764008 55.07387230115568855 0.100714032943528764008 31.00968833077958564
0.126791455396883634421 62.58583442208574610 0.126791455396883634421 34.40246390272054100
0.159620985197506115583 70.89631877559304485 0.159620985197506115583 37.96538442265812563
0.200950914520774404082 80.04112251388647792 0.200950914520774404082 41.68007178388125311
0.252982212813464002465 90.05146474966832670 0.252982212813464002465 45.54076032644120176
0.318485736442795541734 100.95950263657417167 0.318485736442795541734 49.56651485388688627
0.400949786901833249431 112.80389142529952551 0.400949786901833249431 53.77302005358114911
0.504765875584169521062 125.62222566230511234 0.504765875584169521062 58.20598081458133066
0.635462587779429100010 139.47172371797586266 0.635462587779429100010 62.91777513391356536
0.800000000000011368684 154.41075930741453703 0.800000000000011368684 67.98155424147428505
1.007140329435344483500 170.52556194295999603 1.007140329435344483500 73.47298523534145431
1.267914553968893187630 187.90304594873970245 1.267914553968893187630 79.44494863901670101
1.596209851975103788391 206.64523666839602356 1.596209851975103788391 85.93741184199308236
2.009509145207672986544 226.84609607167556078 2.009509145207672986544 92.90548924693261768
2.529822128134725289783 248.57256191440862381 2.529822128134725289783 100.21812593095094712
3.184857364427998049905 271.84061681636114827 3.184857364427998049905 107.65067504995195691
4.009497869018190385759 296.59324107739797682 4.009497869018190385759 114.90643024084120327
5.009497869018204596614 321.80672745885112818 5.009497869018204596614 121.44373029673637632
6.009497869018190385759 343.19586120098762194 6.009497869018190385759 126.24520349413937481
7.009497869018190385759 361.71770803469843258 7.009497869018190385759 129.77034901892611174
8.009497869018204596614 377.98993978797506088 8.009497869018204596614 132.31438584346909693
9.009497869018190385759 392.44656099926419301 9.009497869018190385759 134.07454344312600369
10.009497869018190385759 405.41051068406051172 10.009497869018190385759 135.21628978320325132
11.009497869018204596614 417.11933317848371416 11.009497869018204596614 136.02471593099977554
12.009497869018190385759 427.75975039042657500 12.009497869018190385759 136.44781857163224004
13.009497869018190385759 437.47899990539258397 13.009497869018190385759 136.55974441386203466
14.009497869018204596614 446.39623294034237233 14.009497869018204596614 136.41535429571339932
15.009497869018190385759 454.60949784518425076 15.009497869018190385759 136.02143017659656721
16.009497869018190385759 462.20080599174497138 16.009497869018190385759 135.39251228856866760
17.009497869018190385759 469.23102732372205992 17.009497869018190385759 134.43424652766188387
18.009497869018204596614 475.75583231640081294 18.009497869018204596614 133.32540480342356659
19.009497869018190385759 481.82143481511019445 19.009497869018190385759 131.86852507025039927
20.009497869018190385759 487.46570194727468106 20.009497869018190385759 130.43478446739314336
21.009497869018204596614 492.72218703909157966 21.009497869018204596614 128.90410599791641744
22.009497869018190385759 497.62791819707541663 22.009497869018190385759 127.29968227187268326
23.009497869018190385759 502.22101955207170931 23.009497869018190385759 125.58201360897820109
24.009497869018204596614 506.52710160260841121 24.009497869018204596614 123.85919279294989792
25.009497869018190385759 510.56933560375011893 25.009497869018190385759 122.04317294048453846
26.009497869018190385759 514.36871642618962142 26.009497869018190385759 119.95486326536037325
27.009497869018204596614 517.94240296876921548 27.009497869018204596614 117.82010931067298998
28.009497869018190385759 521.29534239356587477 28.009497869018190385759 115.59880759749059109
29.009497869018190385759 524.43596504486322374 29.009497869018190385759 113.34784203339862074
30.009497869018190385759 527.38094511258191233 30.009497869018190385759 111.09211101697574975
31.009497869018190385759 530.13731502857433497 31.009497869018190385759 108.77514811463248634
32.009497869018190385759 532.72907476942782523 32.009497869018190385759 106.44874947995067771
33.009497869018190385759 535.17547897699432724 33.009497869018190385759 104.16133662730428000
34.009497869018190385759 537.48616144216725843 34.009497869018190385759 101.85490811149561807
35.009497869018190385759 539.66724390812703405 35.009497869018190385759 99.45594999554077731
36.009497869018190385759 541.72699524182405639 36.009497869018190385759 97.22378046768179161
37.009497869018190385759 543.67020335992560831 37.009497869018190385759 95.00698598893220037
38.009497869018190385759 545.50130501352157353 38.009497869018190385759 92.77083751501812969
39.009497869018190385759 547.22437440068040360 39.009497869018190385759 90.48933580873584503
40.009497869018190385759 548.84933984340364077 40.009497869018190385759 88.11771761057059393
41.009497869018190385759 550.38249452310913057 41.009497869018190385759 85.92583882573003962
42.009497869018190385759 551.82959464081261558 42.009497869018190385759 83.67763151512511399
43.009497869018190385759 553.19626142895810972 43.009497869018190385759 81.50374732118255849
44.009497869018190385759 554.48746976990719304 44.009497869018190385759 79.31302151923966903
46.009497869018190385759 556.86119415269115507 46.009497869018190385759 75.08716020721513473
48.009497869018190385759 558.98282422572617634 48.009497869018190385759 71.04773516186628513
50.009497869018218807469 560.87962358018444320 50.009497869018218807469 67.13713578253204162
52.009497869018190385759 562.57769914575089842 52.009497869018190385759 63.37541958722353286
54.009497869018190385759 564.09846504094184638 54.009497869018190385759 59.79299160096233123
56.009497869018190385759 565.46173728335054420 56.009497869018190385759 56.35902940754584733
58.009497869018190385759 566.68422741409210630 58.009497869018190385759 53.08824069762655284
60.009497869018190385759 567.78174067782197199 60.009497869018190385759 49.97650872641239772
62.009497869018190385759 568.76695843683194198 62.009497869018190385759 47.01191876854365148
64.009497869018190385759 569.65289159201518032 64.009497869018190385759 44.19383586652888596
66.009497869018218807469 570.44926160663226256 66.009497869018218807469 41.54809230433982492
68.009497869018190385759 571.16567069344353058 68.009497869018190385759 39.04701134558618492
70.009497869018190385759 571.81056949155595248 70.009497869018190385759 36.64811622879822295
72.009497869018190385759 572.39088034499900459 72.009497869018190385759 34.41568796087540250
74.009497869018218807469 572.91375909112866793 74.009497869018218807469 32.28843759147085279
76.009497869018190385759 573.38504441135501111 76.009497869018190385759 30.27680151055057678
78.009497869018190385759 573.80989167559175712 78.009497869018190385759 28.37101229774685862
80.009497869018218807469 574.19309472303996245 80.009497869018218807469 26.58226497050419468
82.009497869018190385759 574.53866076230644921 82.009497869018190385759 24.88298613771144119
84.009497869018190385759 574.85018483533110611 84.009497869018190385759 23.22584329019740679
86.009497869018218807469 575.13132337538081629 86.009497869018218807469 21.70842401201100103
88.009497869018190385759 575.38503916183958609 88.009497869018190385759 20.22943144600020560
91.009497869018190385759 575.71993299811549605 91.009497869018190385759 18.18319984536532630
94.009497869018190385759 576.00740477096428549 94.009497869018190385759 16.27993898208046275
97.009497869018190385759 576.25356433034619386 97.009497869018190385759 14.56028638399310005
99.504748934509137825444 576.43118285170498893 99.504748934509137825444 12.37463680910138031
nan nan nan nan

