Time Pressure difference Time.1 Pressure.1 difference.1
(hr) (psi) (hr) (psi)
0.000200000000006639311 0.11836046460234791 0.000200000000006639311 0.09487217104765330
0.000399999999999067768 0.22132913768770984 0.000399999999999067768 0.20223347428502217
0.000600000000019917934 0.31605933994330798 0.000600000000019917934 0.27762342675835366
0.000799999999998135536 0.40490471260418531 0.000799999999998135536 0.34759005239253743
0.001007140329448930061 0.49208211991028872 0.001007140329448930061 0.41536219920210943
0.001267914553963578328 0.59618409127372118 0.001267914553963578328 0.49486914163605533
0.001596209851982166583 0.71997480878991837 0.001596209851982166583 0.58709171321911613
0.002009509145210586212 0.86654537882625349 0.002009509145210586212 0.69348818026254921
0.002529822128153114136 1.03933132180560706 0.002529822128153114136 0.81559434645188855
0.003184857364431081805 1.24213069420580924 0.003184857364431081805 0.95503002040860463
0.004009497869020606231 1.47912451671014211 0.004009497869020606231 1.11351369667849398
0.005047658755856332391 1.75490160062954348 0.005047658755856332391 1.29288650271914318
0.006354625877790454069 2.07448992458257253 0.006354625877790454069 1.49514441618498539
0.007999999999995566213 2.44339618581077378 0.007999999999995566213 1.72247629826169990
0.010071403294347192059 2.86765453452423014 0.010071403294347192059 1.97730908543371409
0.012679145539706837553 3.35388671543334915 0.012679145539706837553 2.26237247757818860
0.015962098519764822413 3.90938027953006806 0.015962098519764822413 2.58079892539613276
0.020095091452077440408 4.54219432809385104 0.020095091452077440408 2.93623889885834766
0.025298221281346400247 5.26129017817197653 0.025298221281346400247 3.33288621543003316
0.031848573644282396344 6.07664788950459656 0.031848573644282396344 3.77523794803703572
0.040094978690177640601 6.99928516807115564 0.040094978690177640601 4.26746358663225767
0.050476587558421215363 8.04108182710396591 0.050476587558421215363 4.81245364777205076
0.063546258777947173257 9.21435862030671693 0.063546258777947173257 5.41092158963907810
0.079999999999998294697 10.53128573296524806 0.079999999999998294697 6.06101563804717713
0.100714032943528764008 12.00327986050829132 0.100714032943528764008 6.75852181568273114
0.126791455396883634421 13.64050237404432941 0.126791455396883634421 7.49797290187498966
0.159620985197506115583 15.45176178442412507 0.159620985197506115583 8.27450686134856639
0.200950914520774404082 17.44486003507781646 0.200950914520774404082 9.08411820930745328
0.252982212813464002465 19.62660129159437972 0.252982212813464002465 9.92555032755769773
0.318485736442795541734 22.00399416438154887 0.318485736442795541734 10.80295836559072953
0.400949786901833249431 24.58546351577041023 0.400949786901833249431 11.71976078090871276
0.504765875584169521062 27.37920302896393210 0.504765875584169521062 12.68591889548567408
0.635462587779429100010 30.39768337443063473 0.635462587779429100010 13.71284842662218928
0.800000000000011368684 33.65362702853906285 0.800000000000011368684 14.81649259109054917
1.007140329435344483500 37.16582760295281673 1.007140329435344483500 16.01334293590775459
1.267914553968893187630 40.95322796318686187 1.267914553968893187630 17.31492470337543566
1.596209851975103788391 45.03806440208631301 1.596209851975103788391 18.72994873479336064
2.009509145207672986544 49.44081581049339036 2.009509145207672986544 20.24863227176736657
2.529822128134725289783 54.17607118647367770 2.529822128134725289783 21.84241206187392237
3.184857364427998049905 59.24731392151461051 3.184857364427998049905 23.46232661345106862
4.009497869018190385759 64.64211664507391220 4.009497869018190385759 25.04370915505513295
5.009497869018204596614 70.13736367692908402 5.009497869018204596614 26.46850532108357257
6.009497869018190385759 74.79909795406140915 6.009497869018190385759 27.51498024872267933
7.009497869018190385759 78.83591072551119794 7.009497869018190385759 28.28328119643261118
8.009497869018204596614 82.38242277430225613 8.009497869018204596614 28.83775076075608013
9.009497869018190385759 85.53322483317296587 9.009497869018190385759 29.22137485298899762
10.009497869018190385759 88.35870104652599366 10.009497869018190385759 29.47021700403147904
11.009497869018204596614 90.91062389787465747 11.009497869018204596614 29.64641244649994789
12.009497869018190385759 93.22968918765707258 12.009497869018190385759 29.73862712458651103
13.009497869018190385759 95.34798715886761045 13.009497869018190385759 29.76302121840582871
14.009497869018204596614 97.29148666648488586 14.009497869018204596614 29.73155157727086362
15.009497869018190385759 99.08155722266836563 15.009497869018190385759 29.64569632054027437
16.009497869018190385759 100.73607310076492638 16.009497869018190385759 29.50862447314958104
17.009497869018190385759 102.26830082696507418 17.009497869018190385759 29.29977167910579183
18.009497869018204596614 103.69037370998479730 18.009497869018204596614 29.05810104690000628
19.009497869018190385759 105.01236399816502853 19.009497869018190385759 28.74057597684944909
20.009497869018190385759 106.24252478338037520 20.009497869018190385759 28.42809405058568117
21.009497869018204596614 107.38816897005843032 21.009497869018204596614 28.09448464057152250
22.009497869018190385759 108.45736678654209584 22.009497869018190385759 27.74480254643379240
23.009497869018190385759 109.45842733827203119 23.009497869018190385759 27.37043886349524868
24.009497869018204596614 110.39693240056848822 24.009497869018204596614 26.99495227538651676
25.009497869018190385759 111.27793211876604573 25.009497869018190385759 26.59915307677226792
26.009497869018190385759 112.10600229801568162 26.009497869018190385759 26.14400866039905580
27.009497869018204596614 112.88488269832150479 27.009497869018204596614 25.67874177283898263
28.009497869018190385759 113.61565154731566452 28.009497869018190385759 25.19461191227359009
29.009497869018190385759 114.30014622772657162 29.009497869018190385759 24.70401685343303555
30.009497869018190385759 114.94200085787039711 30.009497869018190385759 24.21238317036650756
31.009497869018190385759 115.54274814725337706 31.009497869018190385759 23.70740407626605872
32.009497869018190385759 116.10761886000349818 32.009497869018190385759 23.20036847639950750
33.009497869018190385759 116.64080952062698771 33.009497869018190385759 22.70182977774580380
34.009497869018190385759 117.14441980149800315 34.009497869018190385759 22.19914663968494040
35.009497869018190385759 117.61978392869436050 35.009497869018190385759 21.67629679389991537
36.009497869018190385759 118.06870409116677934 36.009497869018190385759 21.18979830705885448
37.009497869018190385759 118.49222380921456477 37.009497869018190385759 20.70665079245958395
38.009497869018190385759 118.89131006704955951 38.009497869018190385759 20.21928509942702945
39.009497869018190385759 119.26685083091753370 39.009497869018190385759 19.72203472754499387
40.009497869018190385759 119.62100996587001589 40.009497869018190385759 19.20514358179102388
41.009497869018190385759 119.95515906272892437 41.009497869018190385759 18.72742641073603309
42.009497869018190385759 120.27055267812582429 42.009497869018190385759 18.23743250970675334
43.009497869018190385759 120.56841595246521592 43.009497869018190385759 17.76363723666799288
44.009497869018190385759 120.84983315497977685 44.009497869018190385759 17.28617135675736449
46.009497869018190385759 121.36718334097113825 46.009497869018190385759 16.36515030157252681
48.009497869018190385759 121.82958989535057981 48.009497869018190385759 15.48476279168880509
50.009497869018218807469 122.24299488286069959 50.009497869018218807469 14.63245267055185295
52.009497869018190385759 122.61308827535596322 52.009497869018190385759 13.81259144849743770
54.009497869018190385759 122.94453725251295850 54.009497869018190385759 13.03180586174820199
56.009497869018190385759 123.24166068996100876 56.009497869018190385759 12.28337820420870941
58.009497869018190385759 123.50810084666110811 58.009497869018190385759 11.57051399820065818
60.009497869018190385759 123.74730245542272655 60.009497869018190385759 10.89231600447449644
62.009497869018190385759 123.96202940289926175 62.009497869018190385759 10.24618742391336035
64.009497869018190385759 124.15511739825971915 64.009497869018190385759 9.63198986834603943
66.009497869018218807469 124.32868522195830963 66.009497869018218807469 9.05535345094585864
68.009497869018190385759 124.48482566395563254 68.009497869018190385759 8.51024606249955262
70.009497869018190385759 124.62538053021090434 70.009497869018190385759 7.98740994730217579
72.009497869018190385759 124.75185853673055192 72.009497869018190385759 7.50085506839592053
74.009497869018218807469 124.86581928909215833 74.009497869018218807469 7.03722357762826167
76.009497869018190385759 124.96853532042352697 76.009497869018190385759 6.59879007281230479
78.009497869018190385759 125.06113023698794962 78.009497869018190385759 6.18342575720123921
80.009497869018218807469 125.14464884989332916 80.009497869018218807469 5.79357057049450397
82.009497869018190385759 125.21996452511807263 82.009497869018190385759 5.42321492744992995
84.009497869018190385759 125.28786079744396886 84.009497869018190385759 5.06204276837635803
86.009497869018218807469 125.34913458181378587 86.009497869018218807469 4.73132318210496194
88.009497869018190385759 125.40443161219580759 88.009497869018190385759 4.40897864848722421
91.009497869018190385759 125.47742129446105253 91.009497869018190385759 3.96300509450269933
94.009497869018190385759 125.54007539879991384 94.009497869018190385759 3.54819182942779277
97.009497869018190385759 125.59372555917801151 97.009497869018190385759 3.17339575035747057
99.504748934509137825444 125.63243728819213629 99.504748934509137825444 2.69703622762465978
nan nan nan nan

