Time Pressure difference Time.1 Pressure.1 difference.1
(hr) (psi) (hr) (psi)
0.000200000000006639311 0.66421107782729349 0.000200000000006639311 0.53240030105565439
0.000399999999999067768 1.24204704325926585 0.000399999999999067768 1.13488667334065396
0.000600000000019917934 1.77365064885832857 0.000600000000019917934 1.55795734780864348
0.000799999999998135536 2.27222997543760474 0.000799999999998135536 1.95059358813223982
0.001007140329448930061 2.76144907290832631 0.001007140329448930061 2.33091492964007285
0.001267914553963578328 3.34564484161841147 0.001267914553963578328 2.77708918306351027
0.001596209851982166583 4.04032922109165948 0.001596209851982166583 3.29462055535903975
0.002009509145210586212 4.86284877294262241 0.002009509145210586212 3.89169249394395189
0.002529822128153114136 5.83248282942676077 0.002529822128153114136 4.57692356773589282
0.003184857364431081805 6.97054518983730631 0.003184857364431081805 5.35940376158711107
0.004009497869020606231 8.30049875847926621 0.004009497869020606231 6.24877686253696130
0.005047658755856332391 9.84809486470932072 0.005047658755856332391 7.25537484467095517
0.006354625877790454069 11.64154934148102605 0.006354625877790454069 8.39039866494397657
0.007999999999995566213 13.71176447802045928 0.007999999999995566213 9.66613169730389288
0.010071403294347192059 16.09260250550656224 0.010071403294347192059 11.09619333825743048
0.012679145539706837553 18.82122309719655817 0.012679145539706837553 12.69590202123289302
0.015962098519764822413 21.93852227453932358 0.015962098519764822413 14.48283632251712305
0.020095091452077440408 25.48972581765608325 0.020095091452077440408 16.47748182065213740
0.025298221281346400247 29.52512252927097336 0.025298221281346400247 18.70337323247206740
0.031848573644282396344 34.10071815639637549 0.031848573644282396344 21.18574707310195748
0.040094978690177640601 39.27834147258754172 0.040094978690177640601 23.94800153910102125
0.050476587558421215363 45.12465919445402562 0.050476587558421215363 27.00635752926197597
0.063546258777947173257 51.70881249278004788 0.063546258777947173257 30.36481880303341541
0.079999999999998294697 59.09909758381675005 0.079999999999998294697 34.01299363939415343
0.100714032943528764008 67.35958227602887405 0.100714032943528764008 37.92723418918426859
0.126791455396883634421 76.54728979316639936 0.126791455396883634421 42.07685969640435530
0.159620985197506115583 86.71165142553303440 0.159620985197506115583 46.43458556309724372
0.200950914520774404082 97.89644984390729121 0.200950914520774404082 50.97793395105476577
0.252982212813464002465 110.13986842459434001 0.252982212813464002465 55.69985301464731009
0.318485736442795541734 123.48123784011765736 0.318485736442795541734 60.62366047513857126
0.400949786901833249431 137.96783643555863819 0.400949786901833249431 65.76853991168771074
0.504765875584169521062 153.64564523312702704 0.504765875584169521062 71.19039191937255850
0.635462587779429100010 170.58464670121662721 0.635462587779429100010 76.95327881763276423
0.800000000000011368684 188.85623638368392108 0.800000000000011368684 83.14667018764930617
1.007140329435344483500 208.56587960715876306 1.007140329435344483500 89.86311271091761910
1.267914553968893187630 229.81987927576625452 1.267914553968893187630 97.16728333541273344
1.596209851975103788391 252.74302023288441887 1.596209851975103788391 105.10806525289923741
2.009509145207672986544 277.45022519535706351 2.009509145207672986544 113.63055992509451642
2.529822128134725289783 304.02336418762286030 2.529822128134725289783 122.57447710016309372
3.184857364427998049905 332.48198518308788607 3.184857364427998049905 131.66505640724895443
4.009497869018190385759 362.75634870235597873 4.009497869018190385759 140.53940314072116280
5.009497869018204596614 393.59438204582556864 5.009497869018204596614 148.53502397831601911
6.009497869018190385759 419.75493793043870028 6.009497869018190385759 154.40759504283198567
7.009497869018190385759 442.40858136551571533 7.009497869018190385759 158.71911918468654790
8.009497869018204596614 462.31077250990796301 8.009497869018204596614 161.83067191624294878
9.009497869018190385759 479.99233229910004184 9.009497869018190385759 163.98348005736181676
10.009497869018190385759 495.84823999050473731 10.009497869018190385759 165.37992365791782845
11.009497869018204596614 510.16903057983779490 11.009497869018204596614 166.36869102329970360
12.009497869018190385759 523.18307932367565627 12.009497869018190385759 166.88617809915018597
13.009497869018190385759 535.07046911505710796 13.009497869018190385759 167.02307201387742452
14.009497869018204596614 545.97693105780342648 14.009497869018204596614 166.84647179244944937
15.009497869018190385759 556.02238582603308714 15.009497869018190385759 166.36467229291426406
16.009497869018190385759 565.30713963605728622 16.009497869018190385759 165.59545733755706465
17.009497869018190385759 573.90564111132164271 17.009497869018190385759 164.42342459921721343
18.009497869018204596614 581.88597952544409964 18.009497869018204596614 163.06722587495650600
19.009497869018190385759 589.30467796617313070 19.009497869018190385759 161.28534989361398289
20.009497869018190385759 596.20805084320511469 20.009497869018190385759 159.53177484858082380
21.009497869018204596614 602.63713645550433284 21.009497869018204596614 157.65963733591314622
22.009497869018190385759 608.63722302565383870 22.009497869018190385759 155.69730370175199141
23.009497869018190385759 614.25493929830304296 23.009497869018190385759 153.59646279867331486
24.009497869018204596614 619.52160888319019705 24.009497869018204596614 151.48932041599255172
25.009497869018190385759 624.46557200766358164 25.009497869018190385759 149.26818844259261709
26.009497869018190385759 629.11250701357027992 26.009497869018190385759 146.71402507071002219
27.009497869018204596614 633.48340055411017602 27.009497869018204596614 144.10305677228464560
28.009497869018190385759 637.58430338905372992 28.009497869018190385759 141.38623390770001720
29.009497869018190385759 641.42552647794798304 29.009497869018190385759 138.63312987161833689
30.009497869018190385759 645.02746363769631444 30.009497869018190385759 135.87419732076264722
31.009497869018190385759 648.39871607341001436 31.009497869018190385759 133.04037346328127001
32.009497869018190385759 651.56863760260785057 32.009497869018190385759 130.19500897932428529
33.009497869018190385759 654.56077813340084504 33.009497869018190385759 127.39732710570291374
34.009497869018190385759 657.38692053311240215 34.009497869018190385759 124.57638761329079102
35.009497869018190385759 660.05455216455538903 35.009497869018190385759 121.64227730223832680
36.009497869018190385759 662.57378648807707577 36.009497869018190385759 118.91216226431851055
37.009497869018190385759 664.95047949406296084 37.009497869018190385759 116.20085209415555028
38.009497869018190385759 667.19005767038402155 38.009497869018190385759 113.46587049913756573
39.009497869018190385759 669.29750407467838613 39.009497869018190385759 110.67541841222308108
40.009497869018190385759 671.28496180847048436 40.009497869018190385759 107.77474692369787590
41.009497869018190385759 673.16012791672574167 41.009497869018190385759 105.09391056377751283
42.009497869018190385759 674.93004267607079782 42.009497869018190385759 102.34418008388379917
43.009497869018190385759 676.60158128618706996 43.009497869018190385759 99.68535249283097244
44.009497869018190385759 678.18082841088653367 44.009497869018190385759 97.00592631968544310
46.009497869018190385759 681.08407592521450624 46.009497869018190385759 91.83737286882465867
48.009497869018190385759 683.67899270684972635 48.009497869018190385759 86.89684531335953466
50.009497869018218807469 685.99892422499476652 50.009497869018218807469 82.11388145709686626
52.009497869018190385759 688.07580126287996336 52.009497869018190385759 77.51301318745032631
54.009497869018190385759 689.93581493469037014 54.009497869018190385759 73.13142818886930741
56.009497869018190385759 691.60320175425181333 56.009497869018190385759 68.93142827538299855
58.009497869018190385759 693.09840122185107703 58.009497869018190385759 64.93100208402016449
60.009497869018190385759 694.44074436748996959 60.009497869018190385759 61.12511451922747341
62.009497869018190385759 695.64574147274061033 62.009497869018190385759 57.49919295537262798
64.009497869018190385759 696.72930587023381577 64.009497869018190385759 54.05246079060071906
66.009497869018218807469 697.70332765734247005 66.009497869018218807469 50.81651289530793747
68.009497869018190385759 698.57955107890393265 68.009497869018190385759 47.75749849190926000
70.009497869018190385759 699.36831191659530305 70.009497869018190385759 44.82346523368397584
72.009497869018190385759 700.07807672965270740 72.009497869018190385759 42.09303373676299032
74.009497869018218807469 700.71759765761123617 74.009497869018218807469 39.49124290033742568
76.009497869018190385759 701.29401585696496113 76.009497869018190385759 37.03085723213493452
78.009497869018190385759 701.81363674168528632 78.009497869018190385759 34.69993042570577302
80.009497869018218807469 702.28232354587191821 80.009497869018218807469 32.51215484853974402
82.009497869018190385759 702.70497739389782055 82.009497869018190385759 30.43380612227783999
84.009497869018190385759 703.08599529859725408 84.009497869018190385759 28.40699294724144153
86.009497869018218807469 703.42984935911977118 86.009497869018218807469 26.55107244545961009
88.009497869018190385759 703.74016328255754615 88.009497869018190385759 24.74215076856948059
91.009497869018190385759 704.14976420538732782 91.009497869018190385759 22.23945211856220538
94.009497869018190385759 704.50136429679480443 94.009497869018190385759 19.91161767808302585
97.009497869018190385759 704.80243637326952921 97.009497869018190385759 17.80835026965310064
99.504748934509137825444 705.01967748785466483 99.504748934509137825444 15.13513271267014737
nan nan nan nan

