Time Pressure difference Time.1 Pressure.1 difference.1
(hr) (psi) (hr) (psi)
0.000200000000006639311 0.65237503136705866 0.000200000000006639311 0.52291308395088909
0.000399999999999067768 1.21991412949049494 0.000399999999999067768 1.11466332591215167
0.000600000000019917934 1.74204471486399770 0.000600000000019917934 1.53019500513280815
0.000799999999998135536 2.23173950417718636 0.000799999999998135536 1.91583458289298592
0.001007140329448930061 2.71224086091729699 0.001007140329448930061 2.28937870971986213
0.001267914553963578328 3.28602643249103954 0.001267914553963578328 2.72760226889990509
0.001596209851982166583 3.96833174021266810 0.001596209851982166583 3.23591138403712808
0.002009509145210586212 4.77619423505999752 0.002009509145210586212 3.82234367591769741
0.002529822128153114136 5.72854969724620045 0.002529822128153114136 4.49536413309070326
0.003184857364431081805 6.84633212041672490 0.003184857364431081805 5.26390075954625036
0.004009497869020606231 8.15258630680825291 0.004009497869020606231 6.13742549286911210
0.005047658755856332391 9.67260470464636590 0.005047658755856332391 7.12608619439904167
0.006354625877790454069 11.43410034902276884 0.006354625877790454069 8.24088422332547843
0.007999999999995566213 13.46742485943938128 0.007999999999995566213 9.49388406747772251
0.010071403294347192059 15.80583705205413914 0.010071403294347192059 10.89846242971405843
0.012679145539706837553 18.48583442565322699 0.012679145539706837553 12.46966477347507407
0.015962098519764822413 21.54758424658631810 0.015962098519764822413 14.22475642997750889
0.020095091452077440408 25.03550638484670188 0.020095091452077440408 16.18385793076630463
0.025298221281346400247 28.99899351145377580 0.025298221281346400247 18.37008461092906586
0.031848573644282396344 33.49305336744592410 0.031848573644282396344 20.80822327829825369
0.040094978690177640601 38.57841295578042917 0.040094978690177640601 23.52125518043779806
0.050476587558421215363 44.32055101174363188 0.050476587558421215363 26.52511216448477427
0.063546258777947173257 50.78737663074937814 0.063546258777947173257 29.82372664406950591
0.079999999999998294697 58.04596901052022417 0.079999999999998294697 33.40689207558943963
0.100714032943528764008 66.15925428997806534 0.100714032943528764008 37.25138200761599450
0.126791455396883634421 75.18323955576197193 0.126791455396883634421 41.32706240621685367
0.159620985197506115583 85.16647524709061656 0.159620985197506115583 45.60713487696239099
0.200950914520774404082 96.15196384039950317 0.200950914520774404082 50.06952213012402098
0.252982212813464002465 108.17720829543489458 0.252982212813464002465 54.70729798189153570
0.318485736442795541734 121.28083842367948364 0.318485736442795541734 59.54336463857950434
0.400949786901833249431 135.50929008398162523 0.400949786901833249431 64.59656383359684639
0.504765875584169521062 150.90772493023061429 0.504765875584169521062 69.92180002982398435
0.635462587779429100010 167.54487836377356302 0.635462587779429100010 75.58199397497052985
0.800000000000011368684 185.49087368083002048 0.800000000000011368684 81.66502092854025818
1.007140329435344483500 204.84929684686349560 1.007140329435344483500 88.26177841732683760
1.267914553968893187630 225.72455647944758539 1.267914553968893187630 95.43579086507519094
1.596209851975103788391 248.23921379267574139 1.596209851975103788391 103.23507037941989495
2.009509145207672986544 272.50614361430768895 2.009509145207672986544 111.60569669791777869
2.529822128134725289783 298.60575706897549253 2.529822128134725289783 120.39023589397568514
3.184857364427998049905 326.55725379093644278 3.184857364427998049905 129.31882374590384188
4.009497869018190385759 356.29213703784864720 4.009497869018190385759 138.03503222521564453
5.009497869018204596614 386.58064567813266876 5.009497869018204596614 145.88817344620767358
6.009497869018190385759 412.27502813503252810 6.009497869018190385759 151.65609701795969499
7.009497869018190385759 434.52499029296467370 7.009497869018190385759 155.89079106504325978
8.009497869018204596614 454.07253023247773172 8.009497869018204596614 158.94689684016734077
9.009497869018190385759 471.43900981578275378 9.009497869018190385759 161.06134257206289817
10.009497869018190385759 487.01236988585213794 10.009497869018190385759 162.43290195751467309
11.009497869018204596614 501.07796819005034195 11.009497869018204596614 163.40404977864972125
12.009497869018190385759 513.86011040490996038 12.009497869018190385759 163.91231538669154588
13.009497869018190385759 525.53567039917027159 13.009497869018190385759 164.04676989203682069
14.009497869018204596614 536.24778239115494216 14.009497869018204596614 163.87331663472235732
15.009497869018190385759 546.11423010376620368 15.009497869018190385759 163.40010266086022739
16.009497869018190385759 555.23353232598083196 16.009497869018190385759 162.64459489024210370
17.009497869018190385759 563.67881102862520493 17.009497869018190385759 161.49344743130666302
18.009497869018204596614 571.51694215444558722 18.009497869018204596614 160.16141577026652953
19.009497869018190385759 578.80344156635669606 19.009497869018190385759 158.41129229592903016
20.009497869018190385759 585.58379836486710701 20.009497869018190385759 156.68896544352224964
21.009497869018204596614 591.89831955849854239 21.009497869018204596614 154.85018887185597691
22.009497869018190385759 597.79148634699959075 22.009497869018190385759 152.92282344710861253
23.009497869018190385759 603.30909656447579437 23.009497869018190385759 150.85941891232380385
24.009497869018204596614 608.48191564313333402 24.009497869018204596614 148.78982518845390359
25.009497869018190385759 613.33777879578701686 25.009497869018190385759 146.60827313491537893
26.009497869018190385759 617.90190678376870892 26.009497869018190385759 144.09962420467010702
27.009497869018204596614 622.19491228427796159 27.009497869018204596614 141.53518259500074805
28.009497869018190385759 626.22273823432215067 28.009497869018190385759 138.86677271647266707
29.009497869018190385759 629.99551185517532303 29.009497869018190385759 136.16272818627501806
30.009497869018190385759 633.53326355190915820 30.009497869018190385759 133.45295900372599363
31.009497869018190385759 636.84444125868469655 31.009497869018190385759 130.66963305565468545
32.009497869018190385759 639.95787571660741833 32.009497869018190385759 127.87497213168435906
33.009497869018190385759 642.89669718133825427 33.009497869018190385759 125.12714412792834651
34.009497869018190385759 645.67247855296261605 34.009497869018190385759 122.35647294932229556
35.009497869018190385759 648.29257377168585208 35.009497869018190385759 119.47464762284833739
36.009497869018190385759 650.76691607896043479 36.009497869018190385759 116.79318243361261409
37.009497869018190385759 653.10125711314151431 37.009497869018190385759 114.13018701490958051
38.009497869018190385759 655.30092666367897891 38.009497869018190385759 111.44394198919485461
39.009497869018190385759 657.37081899158670240 39.009497869018190385759 108.70321493946858027
40.009497869018190385759 659.32286081188362914 40.009497869018190385759 105.85423256551877103
41.009497869018190385759 661.16461201045297003 41.009497869018190385759 103.22116792270391272
42.009497869018190385759 662.90298740825812729 42.009497869018190385759 100.52043683291311993
43.009497869018190385759 664.54473969094067343 43.009497869018190385759 97.90898876916416782
44.009497869018190385759 666.09584509538854036 44.009497869018190385759 95.27730918400969529
46.009497869018190385759 668.94735759111745210 46.009497869018190385759 90.20085783866740314
48.009497869018190385759 671.49603371731473089 48.009497869018190385759 85.34836903419065379
50.009497869018218807469 673.77462473670868803 50.009497869018218807469 80.65063619004169482
52.009497869018190385759 675.81449243534427751 52.009497869018190385759 76.13175404260059054
54.009497869018190385759 677.64136120943908281 54.009497869018190385759 71.82824760269448916
56.009497869018190385759 679.27903568525573519 56.009497869018190385759 67.70309045496212264
58.009497869018190385759 680.74759113718494064 58.009497869018190385759 63.77395068420010205
60.009497869018190385759 682.06601412194765999 60.009497869018190385759 60.03588291878002536
62.009497869018190385759 683.24953853245062874 62.009497869018190385759 56.47457421298128821
64.009497869018190385759 684.31379413040792770 64.009497869018190385759 53.08926180376611370
66.009497869018218807469 685.27045913514677977 66.009497869018218807469 49.91097755021336013
68.009497869018190385759 686.13106851250836371 68.009497869018190385759 46.90647388565930243
70.009497869018190385759 686.90577386357415435 70.009497869018190385759 44.02472423895375897
72.009497869018190385759 687.60289087597959679 72.009497869018190385759 41.34294822992339391
74.009497869018218807469 688.23101572870200471 74.009497869018218807469 38.78752054257459747
76.009497869018190385759 688.79716232492262407 76.009497869018190385759 36.37097822485370813
78.009497869018190385759 689.30752371798644162 78.009497869018190385759 34.08158784998565238
80.009497869018218807469 689.76785866088266630 80.009497869018218807469 31.93279779149029807
82.009497869018190385759 690.18298094138606302 82.009497869018190385759 29.89148462953284735
84.009497869018190385759 690.55720921885301777 84.009497869018190385759 27.90078867040380572
86.009497869018218807469 690.89493590093832154 86.009497869018218807469 26.07794012724911425
88.009497869018190385759 691.19972012133803219 88.009497869018190385759 24.30125290372075852
91.009497869018190385759 691.60202207594124957 91.009497869018190385759 21.84315160911193487
94.009497869018190385759 691.94735675691481447 94.009497869018190385759 19.55679849514024582
97.009497869018190385759 692.24306381735175364 97.009497869018190385759 17.49101069461735136
99.504748934509137825444 692.45643375903534888 99.504748934509137825444 14.86542908990768197
nan nan nan nan

