Time Pressure difference Time.1 Pressure.1 difference.1
(hr) (psi) (hr) (psi)
0.000200000000006639311 0.27710273477490860 0.000200000000006639311 0.22211249457038831
0.000399999999999067768 0.51817056941005013 0.000399999999999067768 0.47346425156140493
0.000600000000019917934 0.73995068998492119 0.000600000000019917934 0.64996543441073396
0.000799999999998135536 0.94795338597921031 0.000799999999998135536 0.81376965207194063
0.001007140329448930061 1.15205108073114659 0.001007140329448930061 0.97243620754376214
0.001267914553963578328 1.39577216662906478 0.001267914553963578328 1.15857599041852954
0.001596209851982166583 1.68558808175522068 0.001596209851982166583 1.37448530506593070
0.002009509145210586212 2.02873565160499325 0.002009509145210586212 1.62357821026173266
0.002529822128153114136 2.43325803575665711 0.002529822128153114136 1.90945029345795092
0.003184857364431081805 2.90804715467007124 0.003184857364431081805 2.23589381248602770
0.004009497869020606231 3.46289151559197927 0.004009497869020606231 2.60693206634141550
0.005047658755856332391 4.10853433559151959 0.005047658755856332391 3.02687545930717050
0.006354625877790454069 4.85674699990508252 0.006354625877790454069 3.50039692730367147
0.007999999999995566213 5.72042165854522278 0.007999999999995566213 4.03262098063621455
0.010071403294347192059 6.71368532200378620 0.010071403294347192059 4.62922950589775439
0.012679145539706837553 7.85204066319101734 0.012679145539706837553 5.29661321221246517
0.015962098519764822413 9.15254912501745466 0.015962098519764822413 6.04210571945682862
0.020095091452077440408 10.63407848577266357 0.020095091452077440408 6.87425342203307288
0.025298221281346400247 12.31760877007321398 0.025298221281346400247 7.80287478671266577
0.031848573644282396344 14.22650505895781770 0.031848573644282396344 8.83849825481611973
0.040094978690177640601 16.38656174642541075 0.040094978690177640601 9.99088533811552004
0.050476587558421215363 18.82559157169046671 0.050476587558421215363 11.26680324596044791
0.063546258777947173257 21.57243959342396167 0.063546258777947173257 12.66792230986090040
0.079999999999998294697 24.65559836305981634 0.079999999999998294697 14.18990719966338965
0.100714032943528764008 28.10179637930764684 0.100714032943528764008 15.82289225083368756
0.126791455396883634421 31.93482320511554562 0.126791455396883634421 17.55407773497791624
0.159620985197506115583 36.17530111882824428 0.159620985197506115583 19.37208076951016977
0.200950914520774404082 40.84149584682924683 0.200950914520774404082 21.26752380767274531
0.252982212813464002465 45.94933714149743054 0.252982212813464002465 23.23746488451742920
0.318485736442795541734 51.51523339661092393 0.318485736442795541734 25.29163193826535760
0.400949786901833249431 57.55890870162719608 0.400949786901833249431 27.43802818118627940
0.504765875584169521062 64.09954591486850006 0.504765875584169521062 29.69997482590175863
0.635462587779429100010 71.16634107660819097 0.635462587779429100010 32.10419808115076989
0.800000000000011368684 78.78907974916792512 0.800000000000011368684 34.68802383090610419
1.007140329435344483500 87.01176109397189862 1.007140329435344483500 37.49006169700756175
1.267914553968893187630 95.87873370204924584 1.267914553968893187630 40.53729430554955115
1.596209851975103788391 105.44205665900209112 1.596209851975103788391 43.85011527322210867
2.009509145207672986544 115.74967466221394830 2.009509145207672986544 47.40562143625535896
2.529822128134725289783 126.83574313068542949 2.529822128134725289783 51.13694118015188650
3.184857364427998049905 138.70841729860478608 3.184857364427998049905 54.92944701266780072
4.009497869018190385759 151.33860249846716783 4.009497869018190385759 58.63174261007024768
5.009497869018204596614 164.20394554951633381 5.009497869018204596614 61.96744186936036414
6.009497869018190385759 175.11788815127317775 6.009497869018190385759 64.41742434700957176
7.009497869018190385759 184.56877922796149960 7.009497869018190385759 66.21615244811869161
8.009497869018204596614 192.87178978924882244 8.009497869018204596614 67.51426354577012034
9.009497869018190385759 200.24837343295786241 9.009497869018190385759 68.41239524405659722
10.009497869018190385759 206.86331186186674813 10.009497869018190385759 68.99497863296781475
11.009497869018204596614 212.83781359620067519 11.009497869018204596614 69.40748325709988364
12.009497869018190385759 218.26715468639716278 12.009497869018190385759 69.62337409167901114
13.009497869018190385759 223.22646405429006222 13.009497869018190385759 69.68048497015011833
14.009497869018204596614 227.77653937212343749 14.009497869018204596614 69.60680898678708672
15.009497869018190385759 231.96741043895301004 15.009497869018190385759 69.40580667985311436
16.009497869018190385759 235.84092408296729104 16.009497869018190385759 69.08489729596196582
17.009497869018190385759 239.42813958312999034 17.009497869018190385759 68.59593604873003869
18.009497869018204596614 242.75746315631732841 18.009497869018204596614 68.03014245097766377
19.009497869018190385759 245.85247571335105476 19.009497869018190385759 67.28676022815342606
20.009497869018190385759 248.73249919873757108 20.009497869018190385759 66.55518489490059153
21.009497869018204596614 251.41465441225446398 21.009497869018204596614 65.77414639380862127
22.009497869018190385759 253.91783518261030395 22.009497869018190385759 64.95547890282733761
23.009497869018190385759 256.26149459195454483 23.009497869018190385759 64.07902745688888047
24.009497869018204596614 258.45870056133094295 24.009497869018204596614 63.19994709178724435
25.009497869018190385759 260.52127637216989342 25.009497869018190385759 62.27331132091389065
26.009497869018190385759 262.45993479182499186 26.009497869018190385759 61.20773792258132318
27.009497869018204596614 264.28343125842326344 27.009497869018204596614 60.11846603288185520
28.009497869018190385759 265.99429009312723338 28.009497869018190385759 58.98503259461698889
29.009497869018190385759 267.59681293314810091 29.009497869018190385759 57.83646298627263604
30.009497869018190385759 269.09950789077896616 30.009497869018190385759 56.68546177532864760
31.009497869018190385759 270.50596330945199952 31.009497869018190385759 55.50321660208170726
32.009497869018190385759 271.82842533106696692 32.009497869018190385759 54.31615678592355323
33.009497869018190385759 273.07671876005616696 33.009497869018190385759 53.14898971495782121
34.009497869018190385759 274.25575929997768299 34.009497869018190385759 51.97211977996827414
35.009497869018190385759 275.36867060953147757 35.009497869018190385759 50.74803602336567820
36.009497869018190385759 276.41967193108456513 36.009497869018190385759 49.60905721299661053
37.009497869018190385759 277.41120632980823757 37.009497869018190385759 48.47792361999361788
38.009497869018190385759 278.34553768638659221 38.009497869018190385759 47.33691452689387091
39.009497869018190385759 279.22474488650107105 39.009497869018190385759 46.17276365625239265
40.009497869018190385759 280.05389392009567473 40.009497869018190385759 44.96263026795781315
41.009497869018190385759 280.83619592333008086 41.009497869018190385759 43.84421006748789296
42.009497869018190385759 281.57458803467102371 42.009497869018190385759 42.69704787566640647
43.009497869018190385759 282.27193852400677088 43.009497869018190385759 41.58780953055212848
44.009497869018190385759 282.93078585695263882 44.009497869018190385759 40.46997764699665368
46.009497869018190385759 284.14199393945006022 46.009497869018190385759 38.31370482368156161
48.009497869018190385759 285.22456928440902857 48.009497869018190385759 36.25256230054202433
50.009497869018218807469 286.19242331399152590 50.009497869018218807469 34.25715389929198551
52.009497869018190385759 287.05887725642162422 52.009497869018190385759 32.33771409707047439
54.009497869018190385759 287.83485780294211054 54.009497869018190385759 30.50975725279873174
56.009497869018190385759 288.53047620355573599 56.009497869018190385759 28.75755603102980373
58.009497869018190385759 289.15425962924189207 58.009497869018190385759 27.08861512519919046
60.009497869018190385759 289.71427280740147125 60.009497869018190385759 25.50083393988735025
62.009497869018190385759 290.21698648443475577 62.009497869018190385759 23.98813291010304383
64.009497869018190385759 290.66903955592562170 64.009497869018190385759 22.55018804471601968
66.009497869018218807469 291.07539246082006912 66.009497869018218807469 21.20018043221442383
68.009497869018190385759 291.44094478973141804 68.009497869018190385759 19.92398784044013027
70.009497869018190385759 291.77000853543489711 70.009497869018190385759 18.69993622956627277
72.009497869018190385759 292.06611586834566197 72.009497869018190385759 17.56082539542103760
74.009497869018218807469 292.33291810034518221 74.009497869018218807469 16.47538225821204705
76.009497869018190385759 292.57339445605038009 76.009497869018190385759 15.44893205281939430
78.009497869018190385759 292.79017549600706616 78.009497869018190385759 14.47649089038878145
80.009497869018218807469 292.98570730739731971 80.009497869018218807469 13.56377110033419164
82.009497869018190385759 293.16203459409996412 82.009497869018190385759 12.69670318308865831
84.009497869018190385759 293.32099174930999652 84.009497869018190385759 11.85113542243406037
86.009497869018218807469 293.46444449154051881 86.009497869018218807469 11.07686250869279299
88.009497869018190385759 293.59390459796429695 88.009497869018190385759 10.32219707116420793
91.009497869018190385759 293.76478632467944863 91.009497869018190385759 9.27809428007102532
94.009497869018190385759 293.91147063954332452 94.009497869018190385759 8.30694322418977293
97.009497869018190385759 294.03707513266380147 97.009497869018190385759 7.42947946260160741
99.504748934509137825444 294.12770612176740315 99.504748934509137825444 6.31423775643890917
nan nan nan nan

