Time Pressure difference Time.1 Pressure.1 difference.1
(hr) (psi) (hr) (psi)
0.000200000000006639311 0.59319479906588479 0.000200000000006639311 0.47547699842706243
0.000399999999999067768 1.10924956064663971 0.000399999999999067768 1.01354658876964066
0.000600000000019917934 1.58401504489234379 0.000600000000019917934 1.39138329175363129
0.000799999999998135536 2.02928714787509312 0.000799999999998135536 1.74203955669671706
0.001007140329448930061 2.46619980096215308 0.001007140329448930061 2.08169761011880716
0.001267914553963578328 2.98793438685417900 0.001267914553963578328 2.48016769808187743
0.001596209851982166583 3.60834433581770853 0.001596209851982166583 2.94236552742757018
0.002009509145210586212 4.34292154564686950 0.002009509145210586212 3.47559958578642236
0.002529822128153114136 5.20888403634339614 0.002529822128153114136 4.08756695986475904
0.003184857364431081805 6.22526677331382050 0.003184857364431081805 4.78638574934194772
0.004009497869020606231 7.41302404845318197 0.004009497869020606231 5.58066864452986433
0.005047658755856332391 8.79515390433159538 0.005047658755856332391 6.47964294303946975
0.006354625877790454069 10.39685538673148102 0.006354625877790454069 7.49331201523298507
0.007999999999995566213 12.24572676653399483 0.007999999999995566213 8.63264591834687245
0.010071403294347192059 14.37200978479202362 0.010071403294347192059 9.90980788699720172
0.012679145539706837553 16.80889106793654975 0.012679145539706837553 11.33847853468597933
0.015962098519764822413 19.59289410682128363 0.015962098519764822413 12.93435696727944340
0.020095091452077440408 22.76440922079977369 0.020095091452077440408 14.71573848133713014
0.025298221281346400247 26.36834842236778442 0.025298221281346400247 16.70364150321404750
0.031848573644282396344 30.45472942269362093 0.031848573644282396344 18.92060430427973117
0.040094978690177640601 35.07877037174485224 0.040094978690177640601 21.38752338712166789
0.050476587558421215363 40.30001009819164182 0.050476587558421215363 24.11888534059874800
0.063546258777947173257 46.18019732059601523 0.063546258777947173257 27.11826584924996908
0.079999999999998294697 52.78032614403759482 0.079999999999998294697 30.37638425656584928
0.100714032943528764008 60.15761435972391524 0.100714032943528764008 33.87212109977463115
0.126791455396883634421 68.36298836873980633 0.126791455396883634421 37.57807595527935973
0.159620985197506115583 77.44059435487855581 0.159620985197506115583 41.46988144628810602
0.200950914520774404082 87.42953382286060560 0.200950914520774404082 45.52746302547029700
0.252982212813464002465 98.36390764963771005 0.252982212813464002465 49.74452281811269216
0.318485736442795541734 110.27884134148871453 0.318485736442795541734 54.14188545578413425
0.400949786901833249431 123.21655832609640413 0.400949786901833249431 58.73668344314248202
0.504765875584169521062 137.21812341574866423 0.504765875584169521062 63.57884058208115619
0.635462587779429100010 152.34603667655824211 0.635462587779429100010 68.72556976165944320
0.800000000000011368684 168.66406016656048905 0.800000000000011368684 74.25677463299497560
1.007140329435344483500 186.26638304538707303 1.007140329435344483500 80.25510694937297274
1.267914553968893187630 205.24794249785415445 1.267914553968893187630 86.77832851338747844
1.596209851975103788391 225.72018159163260975 1.596209851975103788391 93.87009601202321107
2.009509145207672986544 247.78573570906101509 2.009509145207672986544 101.48138056203409008
2.529822128134725289783 271.51772147573865368 2.529822128134725289783 109.46902986303872751
3.184857364427998049905 296.93359683017911266 3.184857364427998049905 117.58766043917829336
4.009497869018190385759 323.97107871531164847 4.009497869018190385759 125.51317764768806740
5.009497869018204596614 351.51196383966816938 5.009497869018204596614 132.65392078566588907
6.009497869018190385759 374.87547915800189458 6.009497869018190385759 137.89860689359838375
7.009497869018190385759 395.10703493020906762 7.009497869018190385759 141.74915046682696129
8.009497869018204596614 412.88131884532663207 8.009497869018204596614 144.52802145978930071
9.009497869018190385759 428.67239739919625663 9.009497869018190385759 146.45065514556839048
10.009497869018190385759 442.83301936258914111 10.009497869018190385759 147.69779345549895311
11.009497869018204596614 455.62265624111296347 11.009497869018204596614 148.58084355539975263
12.009497869018190385759 467.24526581108136725 12.009497869018190385759 149.04300182439828859
13.009497869018190385759 477.86167681973648769 13.009497869018190385759 149.16525928283391522
14.009497869018204596614 487.60203905791246370 14.009497869018204596614 149.00754084608692551
15.009497869018190385759 496.57345149243201377 15.009497869018190385759 148.57725450059010086
16.009497869018190385759 504.86549577559827640 16.009497869018190385759 147.89028265366732739
17.009497869018190385759 512.54466061514256126 17.009497869018190385759 146.84356159175376888
18.009497869018204596614 519.67175529945325252 18.009497869018204596614 145.63236524681650508
19.009497869018190385759 526.29725956727418179 19.009497869018190385759 144.04100430750429496
20.009497869018190385759 532.46253597317695494 20.009497869018190385759 142.47491841822943570
21.009497869018204596614 538.20423507346924907 21.009497869018204596614 140.80294655157021566
22.009497869018190385759 543.56280295372857836 22.009497869018190385759 139.05042217389171810
23.009497869018190385759 548.57988289533989246 23.009497869018190385759 137.17419948057616352
24.009497869018204596614 553.28344944284913254 24.009497869018204596614 135.29234905076066298
25.009497869018190385759 557.69881273640396557 25.009497869018190385759 133.30869659652924497
26.009497869018190385759 561.84890563476096759 26.009497869018190385759 131.02761987447055958
27.009497869018204596614 565.75247093511723051 27.009497869018204596614 128.69581170858126029
28.009497869018190385759 569.41491246066425447 28.009497869018190385759 126.26946676033587380
29.009497869018190385759 572.84543874131202301 29.009497869018190385759 123.81071975955850917
30.009497869018190385759 576.06226312297405912 30.009497869018190385759 121.34676741854273985
31.009497869018190385759 579.07306718505810750 31.009497869018190385759 118.81593101752163477
32.009497869018190385759 581.90406628660571187 32.009497869018190385759 116.27478789348459998
33.009497869018190385759 584.57629242102473199 33.009497869018190385759 113.77622923905543928
34.009497869018190385759 587.10026865221357184 34.009497869018190385759 111.25689962947983247
35.009497869018190385759 589.48268180733873578 35.009497869018190385759 108.63649922589839036
36.009497869018190385759 591.73256403337711617 36.009497869018190385759 106.19828328008318863
37.009497869018190385759 593.85514520853416798 37.009497869018190385759 103.77686161867978853
38.009497869018190385759 595.85527163015433416 38.009497869018190385759 101.33429943948134166
39.009497869018190385759 597.73739357612782896 39.009497869018190385759 98.84219757569607623
40.009497869018190385759 599.51235582894855725 40.009497869018190385759 96.25166077462326086
41.009497869018190385759 601.18703247908842968 41.009497869018190385759 93.85745471733588374
42.009497869018190385759 602.76771106919522936 42.009497869018190385759 91.40172057805973793
43.009497869018190385759 604.26053171470800862 43.009497869018190385759 89.02717015083017316
44.009497869018190385759 605.67092851789857377 44.009497869018190385759 86.63422350563101304
46.009497869018190385759 608.26376592063184034 46.009497869018190385759 82.01828268788113974
48.009497869018190385759 610.58123876963941257 48.009497869018190385759 77.60598763834623526
50.009497869018218807469 612.65312729527829561 50.009497869018218807469 73.33440985476576657
52.009497869018190385759 614.50794829766630301 52.009497869018190385759 69.22545831835186902
54.009497869018190385759 616.16909258318253251 54.009497869018190385759 65.31234467182039793
56.009497869018190385759 617.65820534027511712 56.009497869018190385759 61.56140135285777149
58.009497869018190385759 618.99354071385448606 58.009497869018190385759 57.98869368509977562
60.009497869018190385759 620.19236289423633934 60.009497869018190385759 54.58972491654277093
62.009497869018190385759 621.26852383100094812 62.009497869018190385759 51.35148050102460360
64.009497869018190385759 622.23623543127803259 64.009497869018190385759 48.27326686959309399
66.009497869018218807469 623.10611652416753259 66.009497869018218807469 45.38330082474042371
68.009497869018190385759 623.88865568053051902 68.009497869018190385759 42.65135085440952167
70.009497869018190385759 624.59308359846875192 70.009497869018190385759 40.03101926530267463
72.009497869018190385759 625.22696160761438477 72.009497869018190385759 37.59252069572544031
74.009497869018218807469 625.79810608415596107 74.009497869018218807469 35.26890875376046353
76.009497869018190385759 626.31289466471082505 76.009497869018190385759 33.07158318844754774
78.009497869018190385759 626.77695859949255919 78.009497869018190385759 30.98987497138502789
80.009497869018218807469 627.19553423593606567 80.009497869018218807469 29.03601250624304342
82.009497869018190385759 627.57299867882693434 82.009497869018190385759 27.17987716580788415
84.009497869018190385759 627.91327882013092676 84.009497869018190385759 25.36976728621562671
86.009497869018218807469 628.22036861003141439 86.009497869018218807469 23.71227853619663151
88.009497869018190385759 628.49750431524012129 88.009497869018190385759 22.09676357947714820
91.009497869018190385759 628.86331142871074462 91.009497869018190385759 19.86164906186058587
94.009497869018190385759 629.17731905751486465 94.009497869018190385759 17.78270258042634566
97.009497869018190385759 629.44620103776264841 97.009497869018190385759 15.90431281943861563
99.504748934509137825444 629.64021511493933758 99.504748934509137825444 13.51691097609535142
nan nan nan nan

