Time Pressure difference Time.1 Pressure.1 difference.1
(hr) (psi) (hr) (psi)
0.000200000000006639311 0.70459288339750636 0.000200000000006639311 0.56476845353073613
0.000399999999999067768 1.31755933729389629 0.000399999999999067768 1.20388397633201438
0.000600000000019917934 1.88148265895663380 0.000600000000019917934 1.65267592870266999
0.000799999999998135536 2.41037393620844398 0.000799999999998135536 2.06918313541910548
0.001007140329448930061 2.92933591381889524 0.001007140329448930061 2.47262673877961614
0.001267914553963578328 3.54904882570003410 0.001267914553963578328 2.94592689020992893
0.001596209851982166583 4.28596768526704341 0.001596209851982166583 3.49492243398673841
0.002009509145210586212 5.15849366689510891 0.002009509145210586212 4.12829434368058656
0.002529822128153114136 6.18707822157220377 0.002529822128153114136 4.85518516829006597
0.003184857364431081805 7.39433095609575819 0.003184857364431081805 5.68523753325592907
0.004009497869020606231 8.80514124065096304 0.004009497869020606231 6.62868153552138839
0.005047658755856332391 10.44682599904175291 0.005047658755856332391 7.69647729853983975
0.006354625877790454069 12.34931649222096262 0.006354625877790454069 8.90050675987767725
0.007999999999995566213 14.54539376494413361 0.007999999999995566213 10.25380008141670629
0.010071403294347192059 17.07097875846188728 0.010071403294347192059 11.77080467328775804
0.012679145539706837553 19.96549032952087899 0.012679145539706837553 13.46777027828898099
0.015962098519764822413 23.27231084049664389 0.015962098519764822413 15.36334419118168526
0.020095091452077440408 27.03941564724104651 0.020095091452077440408 17.47925744496851763
0.025298221281346400247 31.32015094300023250 0.025298221281346400247 19.84047558832466862
0.031848573644282396344 36.17392743634501073 0.031848573644282396344 22.47376943184400488
0.040094978690177640601 41.66633288287064829 0.040094978690177640601 25.40395970395202951
0.050476587558421215363 47.86808711193655341 0.050476587558421215363 28.64825347967832414
0.063546258777947173257 54.85253484559057569 0.063546258777947173257 32.21089793361615961
0.079999999999998294697 62.69212448094606316 0.079999999999998294697 36.08086956296319414
0.100714032943528764008 71.45481893431994536 0.100714032943528764008 40.23308280865249031
0.126791455396883634421 81.20110825019330036 0.126791455396883634421 44.63499162763228867
0.159620985197506115583 91.98342897551303565 0.159620985197506115583 49.25765260991028782
0.200950914520774404082 103.84822562058089090 0.200950914520774404082 54.07722134011260096
0.252982212813464002465 116.83600298290301112 0.252982212813464002465 59.08621724404935094
0.318485736442795541734 130.98848290796547644 0.318485736442795541734 64.30937568222246625
0.400949786901833249431 146.35581810564502803 0.400949786901833249431 69.76704653105656462
0.504765875584169521062 162.98678509006765580 0.504765875584169521062 75.51852895430296542
0.635462587779429100010 180.95562102896354872 0.635462587779429100010 81.63178004553914491
0.800000000000011368684 200.33806207577370628 0.800000000000011368684 88.20170883637432269
1.007140329435344483500 221.24598549522502822 1.007140329435344483500 95.32648853610966455
1.267914553968893187630 243.79215705144176241 1.267914553968893187630 103.07472823421142039
1.596209851975103788391 268.10894808771382714 1.596209851975103788391 111.49828305653461769
2.009509145207672986544 294.31826823658417425 2.009509145207672986544 120.53891681781514933
2.529822128134725289783 322.50696494536094860 2.529822128134725289783 130.02659415656711417
3.184857364427998049905 352.69577463866346534 3.184857364427998049905 139.66985019301461080
4.009497869018190385759 384.81071791067529375 4.009497869018190385759 149.08372744068114457
5.009497869018204596614 417.52360024148373441 5.009497869018204596614 157.56545520550923811
6.009497869018190385759 445.27463017358911657 6.009497869018190385759 163.79505889239618455
7.009497869018190385759 469.30553914245490432 7.009497869018190385759 168.36870923994001714
8.009497869018204596614 490.41771675055230162 8.009497869018204596614 171.66943394050090888
9.009497869018190385759 509.17425606571197250 9.009497869018190385759 173.95312559544038322
10.009497869018190385759 525.99414975931949812 10.009497869018190385759 175.43446828282267802
11.009497869018204596614 541.18559638028921199 11.009497869018204596614 176.48334938739969857
12.009497869018190385759 554.99085563475853178 12.009497869018190385759 177.03229794165619637
13.009497869018190385759 567.60095885161194929 13.009497869018190385759 177.17751454721587834
14.009497869018204596614 579.17049709695709225 14.009497869018204596614 176.99017762469480886
15.009497869018190385759 589.82668181964936593 15.009497869018190385759 176.47908633168680126
16.009497869018190385759 599.67591751749466766 16.009497869018190385759 175.66310568721985419
17.009497869018190385759 608.79717904052142785 17.009497869018190385759 174.41981728973567556
18.009497869018204596614 617.26269526179180502 18.009497869018204596614 172.98116623213417142
19.009497869018190385759 625.13242568319412840 19.009497869018190385759 171.09095816806848234
20.009497869018190385759 632.45550047518190695 20.009497869018190385759 169.23077164231003167
21.009497869018204596614 639.27545292764193618 21.009497869018204596614 167.24481444857869405
22.009497869018190385759 645.64032463518003624 22.009497869018190385759 165.16317751171175132
23.009497869018190385759 651.59957921371358225 23.009497869018190385759 162.93461252857170507
24.009497869018204596614 657.18644464338422040 24.009497869018204596614 160.69936295700679807
25.009497869018190385759 662.43098414230144044 25.009497869018190385759 158.34319360996198611
26.009497869018190385759 667.36043720936390855 26.009497869018190385759 155.63374567249323377
27.009497869018204596614 671.99706641589034462 27.009497869018204596614 152.86403925948852134
28.009497869018190385759 676.34729038754960584 28.009497869018190385759 149.98204267776984011
29.009497869018190385759 680.42204695564294070 29.009497869018190385759 147.06155915102488052
30.009497869018190385759 684.24296981273437268 30.009497869018190385759 144.13489275535826550
31.009497869018190385759 687.81918308835543030 31.009497869018190385759 141.12878191283087403
32.009497869018190385759 691.18182521366782112 32.009497869018190385759 138.11042881244881642
33.009497869018190385759 694.35587785220297974 33.009497869018190385759 135.14265726516913446
34.009497869018190385759 697.35384023009407883 34.009497869018190385759 132.15021411388917727
35.009497869018190385759 700.18365491669817402 35.009497869018190385759 129.03771973780416715
36.009497869018190385759 702.85605023682819592 36.009497869018190385759 126.14162286319739792
37.009497869018190385759 705.37723820544192677 37.009497869018190385759 123.26547412922998603
38.009497869018190385759 707.75297522267146633 38.009497869018190385759 120.36421482717736353
39.009497869018190385759 709.98854729934441821 39.009497869018190385759 117.40411261338547888
40.009497869018190385759 712.09683579682621257 40.009497869018190385759 114.32709002807364129
41.009497869018190385759 714.08600571459805906 41.009497869018190385759 111.48326780979333250
42.009497869018190385759 715.96352535449011611 42.009497869018190385759 108.56636294013668476
43.009497869018190385759 717.73668790526357952 43.009497869018190385759 105.74588755004710094
44.009497869018190385759 719.41194795787953353 44.009497869018190385759 102.90356125316735358
46.009497869018190385759 722.49170318272228997 46.009497869018190385759 97.42077708936116665
48.009497869018190385759 725.24438220055765214 48.009497869018190385759 92.17988203052394169
50.009497869018218807469 727.70535777326483640 50.009497869018218807469 87.10613001528514587
52.009497869018190385759 729.90850196858957588 52.009497869018190385759 82.22554438752592887
54.009497869018190385759 731.88159823260650683 54.009497869018190385759 77.57757371817164938
56.009497869018190385759 733.65035657788553181 56.009497869018190385759 73.12222789799537281
58.009497869018190385759 735.23645915777080972 58.009497869018190385759 68.87858921281804214
60.009497869018190385759 736.66041226404593090 60.009497869018190385759 64.84131645016582013
62.009497869018190385759 737.93866915137675733 62.009497869018190385759 60.99495101764894400
64.009497869018190385759 739.08811062964014127 64.009497869018190385759 57.33866909862465633
66.009497869018218807469 740.12134967424594834 66.009497869018218807469 53.90598642563064402
68.009497869018190385759 741.05084454072402878 68.009497869018190385759 50.66099420735027792
70.009497869018190385759 741.88755939160841990 70.009497869018190385759 47.54858156864590057
72.009497869018190385759 742.64047552453723711 72.009497869018190385759 44.65214899539218152
74.009497869018218807469 743.31887717977213015 74.009497869018218807469 41.89217800329294761
76.009497869018190385759 743.93033967216820201 76.009497869018190385759 39.28220913932971570
78.009497869018190385759 744.48155176371653852 78.009497869018190385759 36.80956980169207782
80.009497869018218807469 744.97873315348260803 80.009497869018218807469 34.48878480788493306
82.009497869018190385759 745.42708293776161099 82.009497869018190385759 32.28407945046664196
84.009497869018190385759 745.83126545301945498 84.009497869018190385759 30.13404283292278762
86.009497869018218807469 746.19602468703260456 86.009497869018218807469 28.16528858994248097
88.009497869018190385759 746.52520465613031320 88.009497869018190385759 26.24639054275924011
91.009497869018190385759 746.95970794114464297 91.009497869018190385759 23.59153620962782938
94.009497869018190385759 747.33268413873827285 94.009497869018190385759 21.12217724341721237
97.009497869018190385759 747.65206038757730767 97.009497869018190385759 18.89103823153976691
99.504748934509137825444 747.88250903323785224 99.504748934509137825444 16.05529801385973698
nan nan nan nan

