Time Pressure difference Time.1 Pressure.1 difference.1
(hr) (psi) (hr) (psi)
0.000200000000006639311 0.38014596278165858 0.000200000000006639311 0.30470709054128647
0.000399999999999067768 0.71085711280876218 0.000399999999999067768 0.64952633505660073
0.000600000000019917934 1.01510823299438924 0.000600000000019917934 0.89166112358859473
0.000799999999998135536 1.30045866518755981 0.000799999999998135536 1.11637746239014946
0.001007140329448930061 1.58045198512363316 0.001007140329448930061 1.33404565155501031
0.001267914553963578328 1.91480302256148094 0.001267914553963578328 1.58940324313697778
0.001596209851982166583 2.31238967999585521 0.001596209851982166583 1.88560044363316104
0.002009509145210586212 2.78313986375961431 0.002009509145210586212 2.22732086131383422
0.002529822128153114136 3.33808765709330313 0.002529822128153114136 2.61949713625135994
0.003184857364431081805 3.98943152374336352 0.003184857364431081805 3.06733171260645987
0.004009497869020606231 4.75059991837492657 0.004009497869020606231 3.57634399050857521
0.005047658755856332391 5.63633102319841672 0.005047658755856332391 4.15244723814501171
0.006354625877790454069 6.66277352248285126 0.006354625877790454069 4.80205206610001145
0.007999999999995566213 7.84761363207460239 0.007999999999995566213 5.53218858147581294
0.010071403294347192059 9.21023162264840956 0.010071403294347192059 6.35065153321651721
0.012679145539706837553 10.77189498015652092 0.012679145539706837553 7.26620807504524091
0.015962098519764822413 12.55600960366716023 0.015962098519764822413 8.28891890156640265
0.020095091452077440408 14.58845943023084146 0.020095091452077440408 9.43050846339210480
0.025298221281346400247 16.89802610165823182 0.025298221281346400247 10.70444631543998959
0.031848573644282396344 19.51676322158535015 0.031848573644282396344 12.12517599781306821
0.040094978690177640601 22.48005706921676961 0.040094978690177640601 13.70608893118360605
0.050476587558421215363 25.82606280940450461 0.050476587558421215363 15.45646877460905522
0.063546258777947173257 29.59435180404392796 0.063546258777947173257 17.37860698789963010
0.079999999999998294697 33.82401182470015044 0.079999999999998294697 19.46655610808092973
0.100714032943528764008 38.55171061080898198 0.100714032943528764008 21.70678183154571173
0.126791455396883634421 43.81008409546002014 0.126791455396883634421 24.08172473190438012
0.159620985197506115583 49.62742314291512713 0.159620985197506115583 26.57576909586068581
0.200950914520774404082 56.02878575972052033 0.200950914520774404082 29.17605024871688002
0.252982212813464002465 63.03602532476783438 0.252982212813464002465 31.87853222850883839
0.318485736442795541734 70.67165184560191449 0.318485736442795541734 34.69656039772082323
0.400949786901833249431 78.96272399770965933 0.400949786901833249431 37.64111403750680296
0.504765875584169521062 87.93555796361357579 0.504765875584169521062 40.74418657020693502
0.635462587779429100010 97.63020660258310102 0.635462587779429100010 44.04244259373950143
0.800000000000011368684 108.08753151519016455 0.800000000000011368684 47.58708796903199101
1.007140329435344483500 119.36789336007198870 1.007140329435344483500 51.43108966473901944
1.267914553968893187630 131.53213216411779740 1.267914553968893187630 55.61146404731169213
1.596209851975103788391 144.65166566787723923 1.596209851975103788391 60.15618828939515339
2.009509145207672986544 158.79226725017289823 2.009509145207672986544 65.03384247285283948
2.529822128134725289783 174.00079334008606224 2.529822128134725289783 70.15268815166565730
3.184857364427998049905 190.28843177145279242 3.184857364427998049905 75.35547253496638120
4.009497869018190385759 207.61526875417857241 4.009497869018190385759 80.43450116858883803
5.009497869018204596614 225.26470922119577267 5.009497869018204596614 85.01061120771545632
6.009497869018190385759 240.23710284069133536 6.009497869018190385759 88.37164244589754958
7.009497869018190385759 253.20239562428889712 7.009497869018190385759 90.83924431324825832
8.009497869018204596614 264.59295785158252556 8.009497869018204596614 92.62007009042835648
9.009497869018190385759 274.71259269948490100 9.009497869018190385759 93.85218041018819690
10.009497869018190385759 283.78735747884235252 10.009497869018190385759 94.65140284824227024
11.009497869018204596614 291.98353322493858286 11.009497869018204596614 95.21730115169984288
12.009497869018190385759 299.43182527329861387 12.009497869018190385759 95.51347300014256803
13.009497869018190385759 306.23529993377479741 13.009497869018190385759 95.59182108970342995
14.009497869018204596614 312.47736305823968905 14.009497869018204596614 95.49074800699936816
15.009497869018190385759 318.22664849162902101 15.009497869018190385759 95.21500112361758283
16.009497869018190385759 323.54056419422147428 16.009497869018190385759 94.77475860199807300
17.009497869018190385759 328.46171912660543057 17.009497869018190385759 94.10397256936332155
18.009497869018204596614 333.02908262148054064 18.009497869018204596614 93.32778336239648809
19.009497869018190385759 337.27500437057710769 19.009497869018190385759 92.30796754917528801
20.009497869018190385759 341.22599136309224832 20.009497869018190385759 91.30434912717518614
21.009497869018204596614 344.90553092736416829 21.009497869018204596614 90.23287419854146663
22.009497869018190385759 348.33954273795279732 22.009497869018190385759 89.10977759031088397
23.009497869018190385759 351.55471368645021357 23.009497869018190385759 87.90740952628473792
24.009497869018204596614 354.56897112182582532 24.009497869018204596614 86.70143495506492570
25.009497869018190385759 357.39853492262506052 25.009497869018190385759 85.43022105833917124
26.009497869018190385759 360.05810149833268952 26.009497869018190385759 83.96840428575225701
27.009497869018204596614 362.55968207813845083 27.009497869018204596614 82.47407651747109014
28.009497869018190385759 364.90673967549616918 28.009497869018190385759 80.91916531824340098
29.009497869018190385759 367.10517553140419977 29.009497869018190385759 79.34348942337904020
30.009497869018190385759 369.16666157880729315 30.009497869018190385759 77.76447771188303193
31.009497869018190385759 371.09612052000198901 31.009497869018190385759 76.14260368024274328
32.009497869018190385759 372.91035233859946629 32.009497869018190385759 74.51412463596547298
33.009497869018190385759 374.62283528389605181 33.009497869018190385759 72.91293563911300168
34.009497869018190385759 376.24031300951713774 34.009497869018190385759 71.29843567804692839
35.009497869018190385759 377.76707073568888973 35.009497869018190385759 69.61916499687855264
36.009497869018190385759 379.20889666927689632 36.009497869018190385759 68.05664632737726549
37.009497869018190385759 380.56914235194795992 37.009497869018190385759 66.50489019225254594
38.009497869018190385759 381.85091350946504463 38.009497869018190385759 64.93958626051268368
39.009497869018190385759 383.05706208047632799 39.009497869018190385759 63.34253506611509010
40.009497869018190385759 384.19453789038249170 40.009497869018190385759 61.68240232739940865
41.009497869018190385759 385.26774616617638003 41.009497869018190385759 60.14808717801102489
42.009497869018190385759 386.28071624856880817 42.009497869018190385759 58.57434206058758264
43.009497869018190385759 387.23738300027059722 43.009497869018190385759 57.05262312482778952
44.009497869018190385759 388.14122883893503513 44.009497869018190385759 55.51911506346776548
46.009497869018190385759 389.80283590688372897 46.009497869018190385759 52.56101214505058294
48.009497869018190385759 391.28797695800835754 48.009497869018190385759 49.73341461330639390
50.009497869018218807469 392.61573650612905340 50.009497869018218807469 46.99599504777241776
52.009497869018190385759 393.80438940202560616 52.009497869018190385759 44.36279371105647584
54.009497869018190385759 394.86892552865930384 54.009497869018190385759 41.85509412067363400
56.009497869018190385759 395.82321609834536957 56.009497869018190385759 39.45132058528209029
58.009497869018190385759 396.67895918986448578 58.009497869018190385759 37.16176848833858770
60.009497869018190385759 397.44721847447539176 60.009497869018190385759 34.98355610848867769
62.009497869018190385759 398.13687090578235939 62.009497869018190385759 32.90834313798055888
64.009497869018190385759 398.75702411441056938 64.009497869018190385759 30.93568510657022230
66.009497869018218807469 399.31448312464260653 66.009497869018218807469 29.08366461303787887
68.009497869018190385759 399.81596948541044867 68.009497869018190385759 27.33290794191033157
70.009497869018190385759 400.26739864408915537 70.009497869018190385759 25.65368136015875322
72.009497869018190385759 400.67361624149930321 72.009497869018190385759 24.09098157261277962
74.009497869018218807469 401.03963136379007892 74.009497869018218807469 22.60190631402959482
76.009497869018190385759 401.36953108794847367 76.009497869018190385759 21.19376105738540161
78.009497869018190385759 401.66692417291420725 78.009497869018190385759 19.85970860842279961
80.009497869018218807469 401.93516630612793961 80.009497869018218807469 18.60758547935293450
82.009497869018190385759 402.17706253361444624 82.009497869018190385759 17.41809029639800954
84.009497869018190385759 402.39512938473177428 84.009497869018190385759 16.25809030313818582
86.009497869018218807469 402.59192636276662824 86.009497869018218807469 15.19589680840770107
88.009497869018190385759 402.76952741328767615 88.009497869018190385759 14.16060201220014392
91.009497869018190385759 403.00395309868076765 91.009497869018190385759 12.72823989175572734
94.009497869018190385759 403.20518333967498847 94.009497869018190385759 11.39595728745632286
97.009497869018190385759 403.37749503124229022 97.009497869018190385759 10.19220046879516950
99.504748934509137825444 403.50182799619352636 99.504748934509137825444 8.66224576637096533
nan nan nan nan

