Time Pressure difference Time.1 Pressure.1 difference.1
(hr) (psi) (hr) (psi)
0.000200000000006639311 0.23880964328591370 0.000200000000006639311 0.19141855687850048
0.000399999999999067768 0.44656408368755574 0.000399999999999067768 0.40803577458683893
0.000600000000019917934 0.63769619765032148 0.000600000000019917934 0.56014609045950181
0.000799999999998135536 0.81695480248962093 0.000799999999998135536 0.70131404688611965
0.001007140329448930061 0.99284804193664133 0.001007140329448930061 0.83805431956660903
0.001267914553963578328 1.20288907827580216 0.001267914553963578328 0.99847126812451148
0.001596209851982166583 1.45265505538201167 0.001596209851982166583 1.18454386843621662
0.002009509145210586212 1.74838273492591134 0.002009509145210586212 1.39921438723561398
0.002529822128153114136 2.09700378458425440 0.002529822128153114136 1.64558153431175169
0.003184857364431081805 2.50618134183877972 0.003184857364431081805 1.92691351176559666
0.004009497869020606231 2.98435123077399211 0.004009497869020606231 2.24667763506307905
0.005047658755856332391 3.54077205303490228 0.005047658755856332391 2.60858864960391834
0.006354625877790454069 4.18558849489307327 0.006354625877790454069 3.01667373383205861
0.007999999999995566213 4.92991112784173691 0.007999999999995566213 3.47534923708095933
0.010071403294347192059 5.78591473730477102 0.010071403294347192059 3.98951186061037610
0.012679145539706837553 6.76695966702140428 0.012679145539706837553 4.56466917534893302
0.015962098519764822413 7.88774962281654890 0.015962098519764822413 5.20714136124043314
0.020095091452077440408 9.16454502668347715 0.020095091452077440408 5.92429377828478376
0.025298221281346400247 10.61542665360581061 0.025298221281346400247 6.72458806995589065
0.031848573644282396344 12.26053074176515523 0.031848573644282396344 7.61709774221590141
0.040094978690177640601 14.12208713322591969 0.040094978690177640601 8.61023535420508423
0.050476587558421215363 16.22406509821565024 0.050476587558421215363 9.70983294815184372
0.063546258777947173257 18.59132356920708062 0.063546258777947173257 10.91733003086002185
0.079999999999998294697 21.24841768474753323 0.079999999999998294697 12.22899037558930324
0.100714032943528764008 24.21838230679026083 0.100714032943528764008 13.63631166340692324
0.126791455396883634421 27.52171949586590927 0.126791455396883634421 15.12826297260659736
0.159620985197506115583 31.17620171798514761 0.159620985197506115583 16.69503443201504922
0.200950914520774404082 35.19757054136289298 0.200950914520774404082 18.32854438701444977
0.252982212813464002465 39.59955437068747841 0.252982212813464002465 20.02625742560170607
0.318485736442795541734 44.39629410813454058 0.318485736442795541734 21.79655717292718364
0.400949786901833249431 49.60478815240735884 0.400949786901833249431 23.64634086971581439
0.504765875584169521062 55.24156846432134671 0.504765875584169521062 25.59570694795050727
0.635462587779429100010 61.33179645546887571 0.635462587779429100010 27.66768829606712288
0.800000000000011368684 67.90114159287587370 0.800000000000011368684 29.89445269849445808
1.007140329435344483500 74.98752275184010330 1.007140329435344483500 32.30927427656681061
1.267914553968893187630 82.62915994925349139 1.267914553968893187630 34.93540690151631622
1.596209851975103788391 90.87091817597415400 1.596209851975103788391 37.79042597667131531
2.009509145207672986544 99.75411660587784013 2.009509145207672986544 40.85459334833062428
2.529822128134725289783 109.30819068800276739 2.529822128134725289783 44.07027845425150048
3.184857364427998049905 119.54016867693830761 3.184857364427998049905 47.33869428478656971
4.009497869018190385759 130.42497652506088457 4.009497869018190385759 50.52936611872888761
5.009497869018204596614 141.51244553639222090 5.009497869018204596614 53.40410191253919692
6.009497869018190385759 150.91817998966507730 6.009497869018190385759 55.51551897242281797
7.009497869018190385759 159.06304340500199146 7.009497869018190385759 57.06567911986108754
8.009497869018204596614 166.21865300932748255 8.009497869018204596614 58.18440300552550326
9.009497869018190385759 172.57585951634311527 9.009497869018190385759 58.95842102691310060
10.009497869018190385759 178.27667328799071811 10.009497869018190385759 59.46049666107527543
11.009497869018204596614 183.42555292335887884 11.009497869018204596614 59.81599687734989601
12.009497869018190385759 188.10460818450809484 12.009497869018190385759 60.00205355137160979
13.009497869018190385759 192.37858585583288118 13.009497869018190385759 60.05127222301882028
14.009497869018204596614 196.29988192120185886 14.009497869018204596614 59.98777759414062416
15.009497869018190385759 199.91161251397204524 15.009497869018190385759 59.81455198791361028
16.009497869018190385759 203.24984160919041187 16.009497869018190385759 59.53798937817827408
17.009497869018190385759 206.34133637440601206 17.009497869018190385759 59.11659815254874673
18.009497869018204596614 209.21057754426342967 18.009497869018204596614 58.62899211227472307
19.009497869018190385759 211.87788736100355891 19.009497869018190385759 57.98833858858448309
20.009497869018190385759 214.35991765117336172 20.009497869018190385759 57.35786034912287334
21.009497869018204596614 216.67142327488258502 21.009497869018204596614 56.68475430421194972
22.009497869018190385759 218.82868710461139017 22.009497869018190385759 55.97921925545171007
23.009497869018190385759 220.84847398251358186 23.009497869018190385759 55.22388547164041483
24.009497869018204596614 222.74204596114702781 24.009497869018204596614 54.46628606151514873
25.009497869018190385759 224.51959245139266841 25.009497869018190385759 53.66770297254639388
26.009497869018190385759 226.19034581305515985 26.009497869018190385759 52.74938217951103780
27.009497869018204596614 227.76185156190751968 27.009497869018204596614 51.81063781225748244
28.009497869018190385759 229.23628518076040450 28.009497869018190385759 50.83383462299906341
29.009497869018190385759 230.61735385947187638 29.009497869018190385759 49.84398694545605935
30.009497869018190385759 231.91238996617380508 30.009497869018190385759 48.85204369079831110
31.009497869018190385759 233.12448596769354481 31.009497869018190385759 47.83317410681915760
32.009497869018190385759 234.26419569988939884 32.009497869018190385759 46.81015522002959273
33.009497869018190385759 235.33998626808858035 33.009497869018190385759 45.80428008098124337
34.009497869018190385759 236.35609407008126936 34.009497869018190385759 44.79004292595256231
35.009497869018190385759 237.31521110318919909 35.009497869018190385759 43.73511647239806166
36.009497869018190385759 238.22097354864828844 36.009497869018190385759 42.75353423130109576
37.009497869018190385759 239.07548686212115285 37.009497869018190385759 41.77871306949198527
38.009497869018190385759 239.88070207645878895 38.009497869018190385759 40.79538111237336295
39.009497869018190385759 240.63841079414538626 39.009497869018190385759 39.79210536204666226
40.009497869018190385759 241.35297893113772716 40.009497869018190385759 38.74920146208424399
41.009497869018190385759 242.02717387362363866 41.009497869018190385759 37.78533681695564894
42.009497869018190385759 242.66352687410088151 42.009497869018190385759 36.79670206370245467
43.009497869018190385759 243.26450983350335378 43.009497869018190385759 35.84075042457130422
44.009497869018190385759 243.83231042445916614 44.009497869018190385759 34.87739279628103617
46.009497869018190385759 244.87614050560642909 46.009497869018190385759 33.01909737317280502
48.009497869018190385759 245.80911373003090148 48.009497869018190385759 31.24278610323094085
50.009497869018218807469 246.64321908718363829 50.009497869018218807469 29.52312509411344266
52.009497869018190385759 247.38993693204170654 52.009497869018190385759 27.86893451079189177
54.009497869018190385759 248.05868398595262647 54.009497869018190385759 26.29358476811548684
56.009497869018190385759 248.65817421562721279 56.009497869018190385759 24.78352190613874839
58.009497869018190385759 249.19575641414562028 58.009497869018190385759 23.34521353754603368
60.009497869018190385759 249.67838083652938508 60.009497869018190385759 21.97684935020442509
62.009497869018190385759 250.11162403055556069 62.009497869018190385759 20.67318992001342792
64.009497869018190385759 250.50120745648871434 64.009497869018190385759 19.43395602848642412
66.009497869018218807469 250.85140606548057463 66.009497869018218807469 18.27050725690840949
68.009497869018190385759 251.16644236903985643 68.009497869018190385759 17.17067293786674753
70.009497869018190385759 251.45003248154318953 70.009497869018190385759 16.11577418779203796
72.009497869018190385759 251.70522045940344924 72.009497869018190385759 15.13407816741059086
74.009497869018218807469 251.93515303622709212 74.009497869018218807469 14.19863345368525742
76.009497869018190385759 252.14239773473690320 76.009497869018190385759 13.31402938220365151
78.009497869018190385759 252.32922159580510879 78.009497869018190385759 12.47597079247073459
80.009497869018218807469 252.49773267949063893 80.009497869018218807469 11.68938062164479419
82.009497869018190385759 252.64969313009115126 82.009497869018190385759 10.94213364773721153
84.009497869018190385759 252.78668384425458271 84.009497869018190385759 10.21341570325347448
86.009497869018218807469 252.91031271507134193 86.009497869018218807469 9.54614030271765834
88.009497869018190385759 253.02188260578330414 88.009497869018190385759 8.89576280253598739
91.009497869018190385759 253.16915002353024988 91.009497869018190385759 7.99594557302603359
94.009497869018190385759 253.29556389287273532 94.009497869018190385759 7.15899880878666384
97.009497869018190385759 253.40381098116500880 97.009497869018190385759 6.40279260219183755
99.504748934509137825444 253.48191758735237045 99.504748934509137825444 5.44166721220740168
nan nan nan nan

