Time Pressure difference Time.1 Pressure.1 difference.1
(hr) (psi) (hr) (psi)
0.000200000000006639311 0.49850642738400647 0.000200000000006639311 0.39957926158893975
0.000399999999999067768 0.93218625049647208 0.000399999999999067768 0.85175980934162288
0.000600000000019917934 1.33116757293769750 0.000600000000019917934 1.16928455034694823
0.000799999999998135536 1.70536337779174518 0.000799999999998135536 1.46396751478268716
0.001007140329448930061 2.07253410503392166 0.001007140329448930061 1.74940785075711958
0.001267914553963578328 2.51098711383520223 0.001267914553963578328 2.08427238477303289
0.001596209851982166583 3.03236448878577391 0.001596209851982166583 2.47269215685227728
0.002009509145210586212 3.64968524258586768 0.002009509145210586212 2.92080904157638344
0.002529822128153114136 4.37741897889891085 0.002529822128153114136 3.43509148270324838
0.003184857364431081805 5.23156221794917276 0.003184857364431081805 4.02236173301506472
0.004009497869020606231 6.22972443508506846 0.004009497869020606231 4.68985768718706897
0.005047658755856332391 7.39123262382795954 0.005047658755856332391 5.44533374086415556
0.006354625877790454069 8.73726344706542513 0.006354625877790454069 6.29719648228499729
0.007999999999995566213 10.29100981788537617 0.007999999999995566213 7.25466487973751306
0.010071403294347192059 12.07788615717264058 0.010071403294347192059 8.32796061865023063
0.012679145539706837553 14.12578169558987184 0.012679145539706837553 9.52858055262342951
0.015962098519764822413 16.46538988319722918 0.015962098519764822413 10.86971782696253541
0.020095091452077440408 19.13065375832469073 0.020095091452077440408 12.36674736225045379
0.025298221281346400247 22.15931627983020391 0.025298221281346400247 14.03733253087002275
0.031848573644282396344 25.59341111108994582 0.031848573644282396344 15.90041394585010437
0.040094978690177640601 29.47934223728792702 0.040094978690177640601 17.97355251781586460
0.050476587558421215363 33.86714463650847051 0.050476587558421215363 20.26892242238110597
0.063546258777947173257 38.80871042435064311 0.063546258777947173257 22.78952857753870376
0.079999999999998294697 44.35529755766539495 0.079999999999998294697 25.52757174612811042
0.100714032943528764008 50.55499047131727508 0.100714032943528764008 28.46530364722844197
0.126791455396883634421 57.45058646950434422 0.126791455396883634421 31.57969763377937156
0.159620985197506115583 65.07918492733925575 0.159620985197506115583 34.85027595720924865
0.200950914520774404082 73.47364579479834390 0.200950914520774404082 38.26016845802433153
0.252982212813464002465 82.66262661636221765 0.252982212813464002465 41.80408255606653256
0.318485736442795541734 92.67564600998346691 0.318485736442795541734 45.49951876331154921
0.400949786901833249431 103.54818751348008732 0.400949786901833249431 49.36087481841551750
0.504765875584169521062 115.31476099257750434 0.504765875584169521062 53.43010546569261265
0.635462587779429100010 128.02788997701372864 0.635462587779429100010 57.75529102036169604
0.800000000000011368684 141.74115854372922740 0.800000000000011368684 62.40358056012254906
1.007140329435344483500 156.53372096302481964 1.007140329435344483500 67.44443260064677759
1.267914553968893187630 172.48536012730465927 1.267914553968893187630 72.92638875068712423
1.596209851975103788391 189.68973006996355934 1.596209851975103788391 78.88613702418852824
2.009509145207672986544 208.23308306066630280 2.009509145207672986544 85.28247474462020250
2.529822128134725289783 228.17686452655971152 2.529822128134725289783 91.99510021353958678
3.184857364427998049905 249.53574569296739583 3.184857364427998049905 98.81779914841744983
4.009497869018190385759 272.25738539925248460 4.009497869018190385759 105.47821032364396387
5.009497869018204596614 295.40207289812485669 5.009497869018204596614 111.47911652879902533
6.009497869018190385759 315.03620079475274451 6.009497869018190385759 115.88662269462022891
7.009497869018190385759 332.03830634980010927 7.009497869018190385759 119.12252550968086950
8.009497869018204596614 346.97538062588483854 8.009497869018204596614 121.45782085118442239
9.009497869018190385759 360.24581753265789530 9.009497869018190385759 123.07355526317721228
10.009497869018190385759 372.14605852536834618 10.009497869018190385759 124.12161985227373862
11.009497869018204596614 382.89415712281328297 11.009497869018204596614 124.86371359819979432
12.009497869018190385759 392.66151446095568645 12.009497869018190385759 125.25210012472908261
13.009497869018190385759 401.58328709264242207 13.009497869018190385759 125.35484230810925510
14.009497869018204596614 409.76884972472453228 14.009497869018204596614 125.22229958427024599
15.009497869018190385759 417.30820571429734400 15.009497869018190385759 124.86069744415786431
16.009497869018190385759 424.27663729498635803 16.009497869018190385759 124.28338307514765404
17.009497869018190385759 430.73001995357054739 17.009497869018190385759 123.40374424846910983
18.009497869018204596614 436.71945633146532373 18.009497869018204596614 122.38588440929649437
19.009497869018190385759 442.28736836874213623 19.009497869018190385759 121.04854352602474421
20.009497869018190385759 447.46851614647260931 20.009497869018190385759 119.73244317776087087
21.009497869018204596614 452.29369989742258440 21.009497869018204596614 118.32735883911300334
22.009497869018190385759 456.79690952449493579 22.009497869018190385759 116.85458013674467281
23.009497869018190385759 461.01314102472218792 23.009497869018190385759 115.27784838977997595
24.009497869018204596614 464.96590352239428512 24.009497869018204596614 113.69638723045144957
25.009497869018190385759 468.67646704139110625 25.009497869018190385759 112.02937413511143916
26.009497869018190385759 472.16410379634839956 26.009497869018190385759 110.11241294615132347
27.009497869018204596614 475.44456477646002668 27.009497869018204596614 108.15281829031007987
28.009497869018190385759 478.52239122281179107 28.009497869018190385759 106.11377723051698752
29.009497869018190385759 481.40532175913074298 29.009497869018190385759 104.04750627681207220
30.009497869018190385759 484.10866243667766184 30.009497869018190385759 101.97686088224953949
31.009497869018190385759 486.63886866725539448 31.009497869018190385759 99.85000775650880200
32.009497869018190385759 489.01797119860293606 32.009497869018190385759 97.71449311236499113
33.009497869018190385759 491.26364480452309635 33.009497869018190385759 95.61476541685880193
34.009497869018190385759 493.38473281101516932 34.009497869018190385759 93.49758231773186878
35.009497869018190385759 495.38685466438323601 35.009497869018190385759 91.29546179077844670
36.009497869018190385759 497.27760076044359039 36.009497869018190385759 89.24644463443611642
37.009497869018190385759 499.06136616116253890 37.009497869018190385759 87.21154098471211569
38.009497869018190385759 500.74222357651461834 38.009497869018190385759 85.15887135993972379
39.009497869018190385759 502.32391291139390432 39.009497869018190385759 83.06456979366008397
40.009497869018190385759 503.81554785625246495 40.009497869018190385759 80.88754590919043608
41.009497869018190385759 505.22290522890529019 41.009497869018190385759 78.87551358874705443
42.009497869018190385759 506.55126892669454719 42.009497869018190385759 76.81177457029433242
43.009497869018190385759 507.80579895273581315 43.009497869018190385759 74.81626036149577885
44.009497869018190385759 508.99106199391479777 44.009497869018190385759 72.80528642022511576
46.009497869018190385759 511.17001924785489564 46.009497869018190385759 68.92616244662310976
48.009497869018190385759 513.11756685335899419 48.009497869018190385759 65.21817740499520255
50.009497869018218807469 514.85873138898978141 50.009497869018218807469 61.62844771832426716
52.009497869018190385759 516.41747767738161201 52.009497869018190385759 58.17538515955391887
54.009497869018190385759 517.81346278117223392 54.009497869018190385759 54.88689998242183066
56.009497869018190385759 519.06487678830637833 56.009497869018190385759 51.73469878949079970
58.009497869018190385759 520.18706003652550862 58.009497869018190385759 48.73228248653924766
60.009497869018190385759 521.19452092989808989 60.009497869018190385759 45.87587211296317946
62.009497869018190385759 522.09890030868166377 62.009497869018190385759 43.15453056189391390
64.009497869018190385759 522.91214151267035959 64.009497869018190385759 40.56767497491626528
66.009497869018218807469 523.64316834660087352 66.009497869018218807469 38.13901806398374106
68.009497869018190385759 524.30079514936608120 68.009497869018190385759 35.84315400440988242
70.009497869018190385759 524.89277917430001708 70.009497869018190385759 33.64109130746093257
72.009497869018190385759 525.42547477822995461 72.009497869018190385759 31.59183664100870104
74.009497869018218807469 525.90545065288222304 74.009497869018218807469 29.63912989165785916
76.009497869018190385759 526.33806640837201485 76.009497869018190385759 27.79255113019770818
78.009497869018190385759 526.72805440990214265 78.009497869018190385759 26.04313436562404149
80.009497869018218807469 527.07981515602125455 80.009497869018218807469 24.40115604984744024
82.009497869018190385759 527.39702705873253308 82.009497869018190385759 22.84130522384793949
84.009497869018190385759 527.68299018217567209 84.009497869018190385759 21.32013307151454384
86.009497869018218807469 527.94106094458038569 86.009497869018218807469 19.92721999051266479
88.009497869018190385759 528.17395902548344111 88.009497869018190385759 18.56958066068737168
91.009497869018190385759 528.48137439314177755 91.009497869018190385759 16.69124498625842534
94.009497869018190385759 528.74525873847494495 94.009497869018190385759 14.94414911688411429
97.009497869018190385759 528.97122059042033015 97.009497869018190385759 13.36559621915263918
99.504748934509137825444 529.13426528438560581 99.504748934509137825444 11.35928199399562466
nan nan nan nan

