Time Pressure difference Time.1 Pressure.1 difference.1
(hr) (psi) (hr) (psi)
0.000200000000006639311 0.34115663326559104 0.000200000000006639311 0.27345508125500068
0.000399999999999067768 0.63794869098222251 0.000399999999999067768 0.58290824940976993
0.000600000000019917934 0.91099456807188783 0.000600000000019917934 0.80020870065643113
0.000799999999998135536 1.16707828927088708 0.000799999999998135536 1.00187720983731388
0.001007140329448930061 1.41835434562377327 0.001007140329448930061 1.19722045652372722
0.001267914553963578328 1.71841296896543150 0.001267914553963578328 1.42638752589215945
0.001596209851982166583 2.07522150768858804 0.001596209851982166583 1.69220552633745225
0.002009509145210586212 2.49768962132273042 0.002009509145210586212 1.99887769605087695
0.002529822128153114136 2.99571969226322077 0.002529822128153114136 2.35083076330250229
0.003184857364431081805 3.58025905976968550 0.003184857364431081805 2.75273358823656622
0.004009497869020606231 4.26335890110570315 0.004009497869020606231 3.20953947866154188
0.005047658755856332391 5.05824579004986052 0.005047658755856332391 3.72655521371988296
0.006354625877790454069 5.97941213556153350 0.006354625877790454069 4.30953390547436932
0.007999999999995566213 7.04273018263105310 0.007999999999995566213 4.96478462440137047
0.010071403294347192059 8.26559248186395656 0.010071403294347192059 5.69930265801482250
0.012679145539706837553 9.66708523860200586 0.012679145539706837553 6.52095596478419015
0.015962098519764822413 11.26821374688078592 0.015962098519764822413 7.43877337320061827
0.020095091452077440408 13.09220718097639491 0.020095091452077440408 8.46327682612112042
0.025298221281346400247 15.16489521943687357 0.025298221281346400247 9.60655438565127184
0.031848573644282396344 17.51504391680736461 0.031848573644282396344 10.88156820316557472
0.040094978690177640601 20.17441019032274241 0.040094978690177640601 12.30033622029297824
0.050476587558421215363 23.17723585459378555 0.050476587558421215363 13.87118992593120481
0.063546258777947173257 26.55903367029583251 0.063546258777947173257 15.59618575837146182
0.079999999999998294697 30.35488240678218830 0.079999999999998294697 17.46998625084185974
0.100714032943528764008 34.59768900970037464 0.100714032943528764008 19.48044523343845924
0.126791455396883634421 39.31674213695129794 0.126791455396883634421 21.61180424658085286
0.159620985197506115583 44.53743102569306700 0.159620985197506115583 23.85004918859292289
0.200950914520774404082 50.28224363051842261 0.200950914520774404082 26.18363483859207008
0.252982212813464002465 56.57079195812497829 0.252982212813464002465 28.60893917943100817
0.318485736442795541734 63.42327729733506203 0.318485736442795541734 31.13793881846740419
0.400949786901833249431 70.86398307486766157 0.400949786901833249431 33.78048695673687263
0.504765875584169521062 78.91652637760191169 0.504765875584169521062 36.56529563992930321
0.635462587779429100010 87.61685207924125507 0.635462587779429100010 39.52526899438160513
0.800000000000011368684 97.00163084696553994 0.800000000000011368684 42.70636099784922379
1.007140329435344483500 107.12503250262871290 1.007140329435344483500 46.15610610938117020
1.267914553968893187630 118.04165707036212041 1.267914553968893187630 49.90772414502331600
1.596209851975103788391 129.81559739424878330 1.596209851975103788391 53.98632282381616676
2.009509145207672986544 142.50588086553977973 2.009509145207672986544 58.36370478332946732
2.529822128134725289783 156.15455812571826755 2.529822128134725289783 62.95754064893072410
3.184857364427998049905 170.77166953848328035 3.184857364427998049905 67.62670612112366086
4.009497869018190385759 186.32139503580128803 4.009497869018190385759 72.18480874104126599
5.009497869018204596614 202.16063648056029933 5.009497869018204596614 76.29157416077028131
6.009497869018190385759 215.59739998523582472 6.009497869018190385759 79.30788424631830935
7.009497869018190385759 227.23291915000285712 7.009497869018190385759 81.52239874265869446
8.009497869018204596614 237.45521858475356680 8.009497869018204596614 83.12057572217928225
9.009497869018190385759 246.53694216620442603 9.009497869018190385759 84.22631575273300086
10.009497869018190385759 254.68096183998670767 10.009497869018190385759 84.94356665867897505
11.009497869018204596614 262.03650417622696978 11.009497869018204596614 85.45142411049985753
12.009497869018190385759 268.72086883501157217 12.009497869018190385759 85.71721935910230172
13.009497869018190385759 274.82655122261837732 13.009497869018190385759 85.78753174716973717
14.009497869018204596614 280.42840274457404348 14.009497869018204596614 85.69682513448661609
15.009497869018190385759 285.58801787710291364 15.009497869018190385759 85.44935998273373912
16.009497869018190385759 290.35691658455772313 16.009497869018190385759 85.05427054025467726
17.009497869018190385759 294.77333767772285000 17.009497869018190385759 84.45228307506964427
18.009497869018204596614 298.87225363466205863 18.009497869018204596614 83.75570301753531055
19.009497869018190385759 302.68269623000509227 19.009497869018190385759 82.84048369797781675
20.009497869018190385759 306.22845378739049238 20.009497869018190385759 81.93980049874696192
21.009497869018204596614 309.53060467840373349 21.009497869018204596614 80.97822043458849350
22.009497869018190385759 312.61241014944488370 22.009497869018190385759 79.97031322207386950
23.009497869018190385759 315.49781997501941078 23.009497869018190385759 78.89126495948629270
24.009497869018204596614 318.20292280163857868 24.009497869018204596614 77.80898008787877984
25.009497869018190385759 320.74227493056093863 25.009497869018190385759 76.66814710363770757
26.009497869018190385759 323.12906544722164881 26.009497869018190385759 75.35626025644432957
27.009497869018204596614 325.37407365986786090 27.009497869018204596614 74.01519687465354025
28.009497869018190385759 327.48040740108626778 28.009497869018190385759 72.61976374714153337
29.009497869018190385759 329.45336265638837858 29.009497869018190385759 71.20569563636581734
30.009497869018190385759 331.30341423739116635 30.009497869018190385759 69.78863384399757308
31.009497869018190385759 333.03497995384793740 31.009497869018190385759 68.33310586688450883
32.009497869018190385759 334.66313671412768826 32.009497869018190385759 66.87165031432799367
33.009497869018190385759 336.19998038298371057 33.009497869018190385759 65.43468582997320482
34.009497869018190385759 337.65156295725893187 34.009497869018190385759 63.98577560850365842
35.009497869018190385759 339.02173014741310908 35.009497869018190385759 62.47873781771151158
36.009497869018190385759 340.31567649806896725 36.009497869018190385759 61.07647747328728371
37.009497869018190385759 341.53640980303021024 37.009497869018190385759 59.68387581355997185
38.009497869018190385759 342.68671725208400858 38.009497869018190385759 58.27911587481908384
39.009497869018190385759 343.76915827735052744 39.009497869018190385759 56.84586480292380628
40.009497869018190385759 344.78996990162534075 40.009497869018190385759 55.35600208869178118
41.009497869018190385759 345.75310553374805522 41.009497869018190385759 53.97905259565092706
42.009497869018190385759 346.66218124871556938 42.009497869018190385759 52.56671723386064343
43.009497869018190385759 347.52072833357618720 43.009497869018190385759 51.20107203510185911
44.009497869018190385759 348.33187203494168216 44.009497869018190385759 49.82484685183004558
46.009497869018190385759 349.82305786515206592 46.009497869018190385759 47.17013910453258063
48.009497869018190385759 351.15587675718700211 48.009497869018190385759 44.63255157604420731
50.009497869018218807469 352.34745583883380959 50.009497869018218807469 42.17589299159063643
52.009497869018190385759 353.41419561720249476 52.009497869018190385759 39.81276358684555561
54.009497869018190385759 354.36954855136087872 54.009497869018190385759 37.56226395445069954
56.009497869018190385759 355.22596316518172443 56.009497869018190385759 35.40503129448392627
58.009497869018190385759 355.99393773449378386 58.009497869018190385759 33.35030505363719300
60.009497869018190385759 356.68340119504199492 60.009497869018190385759 31.39549907172060728
62.009497869018190385759 357.30232004365080911 62.009497869018190385759 29.53312845716203938
64.009497869018190385759 357.85886779498383703 64.009497869018190385759 27.76279432640917477
66.009497869018218807469 358.35915152211509849 66.009497869018218807469 26.10072465272629927
68.009497869018190385759 358.80920338434270889 68.009497869018190385759 24.52953276838106333
70.009497869018190385759 359.21433211649025452 70.009497869018190385759 23.02253455398862769
72.009497869018190385759 359.57888637057629921 72.009497869018190385759 21.62011166772941806
74.009497869018218807469 359.90736148032442543 74.009497869018218807469 20.28376207669322540
76.009497869018190385759 360.20342533533840879 76.009497869018190385759 19.02004197457664247
78.009497869018190385759 360.47031656543589406 78.009497869018190385759 17.82281541781533463
80.009497869018218807469 360.71104668498662704 80.009497869018218807469 16.69911517377827437
82.009497869018190385759 360.92813304298732646 82.009497869018190385759 15.63161949676744378
84.009497869018190385759 361.12383406322084056 84.009497869018190385759 14.59059386179067808
86.009497869018218807469 361.30044673581619463 86.009497869018218807469 13.63734328959665554
88.009497869018190385759 361.45983229397609193 88.009497869018190385759 12.70823257505141335
91.009497869018190385759 361.67021431932892028 91.009497869018190385759 11.42277939003719212
94.009497869018190385759 361.85080556124682971 94.009497869018190385759 10.22714115540951951
97.009497869018190385759 362.00544425880718791 97.009497869018190385759 9.14684657455976868
99.504748934509137825444 362.11702512478905192 99.504748934509137825444 7.77381030315343047
nan nan nan nan

