Time Pressure difference Time.1 Pressure.1 difference.1
(hr) (psi) (hr) (psi)
0.000200000000006639311 0.15108365187476172 0.000200000000006639311 0.12110153598435744
0.000399999999999067768 0.28252013457784136 0.000399999999999067768 0.25814508188146945
0.000600000000019917934 0.40344045157469316 0.000600000000019917934 0.35437813886213376
0.000799999999998135536 0.51684895667710717 0.000799999999998135536 0.44368847864223898
0.001007140329448930061 0.62812835306195680 0.001007140329448930061 0.53019763074622206
0.001267914553963578328 0.76101145768469114 0.001267914553963578328 0.63168590432367056
0.001596209851982166583 0.91902666769066044 0.001596209851982166583 0.74940530452087173
0.002009509145210586212 1.10611968944292349 0.002009509145210586212 0.88521726539395973
0.002529822128153114136 1.32667586371656943 0.002529822128153114136 1.04108219517682254
0.003184857364431081805 1.58554329789800352 0.003184857364431081805 1.21906773193333651
0.004009497869020606231 1.88805894191824009 0.004009497869020606231 1.42136748340725427
0.005047658755856332391 2.24008027845065216 0.005047658755856332391 1.65033159464737689
0.006354625877790454069 2.64802537432010743 0.006354625877790454069 1.90850787242436382
0.007999999999995566213 3.11892336659375236 0.007999999999995566213 2.19869033366346400
0.010071403294347192059 3.66047667053975267 0.010071403294347192059 2.52397689140656478
0.012679145539706837553 4.28113774852374540 0.012679145539706837553 2.88785192726157014
0.015962098519764822413 4.99020894504720491 0.015962098519764822413 3.29431392241741694
0.020095091452077440408 5.79797746586097507 0.020095091452077440408 3.74802259442506713
0.025298221281346400247 6.71588216860775766 0.025298221281346400247 4.25433122793127794
0.031848573644282396344 7.75666230601469042 0.031848573644282396344 4.81898020425903972
0.040094978690177640601 8.93438165571435761 0.040094978690177640601 5.44729175470117699
0.050476587558421215363 10.26420444989153502 0.050476587558421215363 6.14295553862667632
0.063546258777947173257 11.76185776827386675 0.063546258777947173257 6.90688226442164677
0.079999999999998294697 13.44287649443211130 0.079999999999998294697 7.73670819680139576
0.100714032943528764008 15.32183370429587832 0.100714032943528764008 8.62705431766560515
0.126791455396883634421 17.41170008922128787 0.126791455396883634421 9.57094188062866458
0.159620985197506115583 19.72371945423549988 0.159620985197506115583 10.56216464066257998
0.200950914520774404082 22.26785075065815889 0.200950914520774404082 11.59560971423363185
0.252982212813464002465 25.05277929574106111 0.252982212813464002465 12.66967306517658898
0.318485736442795541734 28.08745137453409768 0.318485736442795541734 13.78965861960699257
0.400949786901833249431 31.38262107601281770 0.400949786901833249431 14.95992993798347470
0.504765875584169521062 34.94874739579513800 0.504765875584169521062 16.19320235482583215
0.635462587779429100010 38.80174877794969746 0.635462587779429100010 17.50404769751185441
0.800000000000011368684 42.95786508937044346 0.800000000000011368684 18.91281701333322829
1.007140329435344483500 47.44108582259271856 1.007140329435344483500 20.44056127701166048
1.267914553968893187630 52.27559098830322881 1.267914553968893187630 22.10199212136746638
1.596209851975103788391 57.48976456031017790 1.596209851975103788391 23.90822867911859007
2.009509145207672986544 63.10974724045333772 2.009509145207672986544 25.84678354690305113
2.529822128134725289783 69.15416145567522221 2.529822128134725289783 27.88119657309789190
3.184857364427998049905 75.62745365275688414 3.184857364427998049905 29.94896985364048447
4.009497869018190385759 82.51376065871200183 4.009497869018190385759 31.96755815674684342
5.009497869018204596614 89.52828186996242721 5.009497869018204596614 33.78626855691256026
6.009497869018190385759 95.47884856489014282 6.009497869018190385759 35.12206302336954167
7.009497869018190385759 100.63172133785840856 7.009497869018190385759 36.10277658603456530
8.009497869018204596614 105.15873965896228981 8.009497869018204596614 36.81054067696511822
9.009497869018190385759 109.18064581646194711 9.009497869018190385759 37.30022554763889531
10.009497869018190385759 112.78728310056554562 10.009497869018190385759 37.61786523455782572
11.009497869018204596614 116.04473756375764992 11.009497869018204596614 37.84277353464993610
12.009497869018190385759 119.00495619836226524 12.009497869018190385759 37.96048285903101771
13.009497869018190385759 121.70890125573100704 13.009497869018190385759 37.99162120231802930
14.009497869018204596614 124.18972121545424159 14.009497869018204596614 37.95145113098693201
15.009497869018190385759 126.47469363128844577 15.009497869018190385759 37.84185942092494059
16.009497869018190385759 128.58663448744698599 16.009497869018190385759 37.66689123925564076
17.009497869018190385759 130.54247811442013472 17.009497869018190385759 37.40029679038798349
18.009497869018204596614 132.35771232392175989 18.009497869018204596614 37.09181133633706651
19.009497869018190385759 134.04519404471653843 19.009497869018190385759 36.68649992339017984
20.009497869018190385759 135.61545810584433980 20.009497869018190385759 36.28762593515936885
21.009497869018204596614 137.07783921472164934 21.009497869018204596614 35.86178333531776730
22.009497869018190385759 138.44263878046842819 22.009497869018190385759 35.41542442691842751
23.009497869018190385759 139.72046313179430399 23.009497869018190385759 34.93756019634393084
24.009497869018204596614 140.91843724072563759 24.009497869018204596614 34.45826261034631699
25.009497869018190385759 142.04300746924840837 25.009497869018190385759 33.95303657446812906
26.009497869018190385759 143.10001469805530405 26.009497869018190385759 33.37205811356820817
27.009497869018204596614 144.09423262079863548 27.009497869018204596614 32.77815861591800228
28.009497869018190385759 145.02703756333821161 28.009497869018190385759 32.16018108801981867
29.009497869018190385759 145.90077489068627870 29.009497869018190385759 31.53395092467628302
30.009497869018190385759 146.72008344798749135 30.009497869018190385759 30.90639498805607133
31.009497869018190385759 147.48691969384694289 31.009497869018190385759 30.26180402676314429
32.009497869018190385759 148.20796054482798354 32.009497869018190385759 29.61458799634525363
33.009497869018190385759 148.88856274103562782 33.009497869018190385759 28.97821801041670398
34.009497869018190385759 149.53140645250039142 34.009497869018190385759 28.33655776948018712
35.009497869018190385759 150.13819477956866422 35.009497869018190385759 27.66915531927224237
36.009497869018190385759 150.71122816343054751 36.009497869018190385759 27.04815430959865807
37.009497869018190385759 151.25183862705623028 37.009497869018190385759 26.43143071743370598
38.009497869018190385759 151.76126049735148626 38.009497869018190385759 25.80932274456273845
39.009497869018190385759 152.24062723711239187 39.009497869018190385759 25.17459726986625768
40.009497869018190385759 152.69270095643406648 40.009497869018190385759 24.51480092499207331
41.009497869018190385759 153.11923245065986521 41.009497869018190385759 23.90500900664540751
42.009497869018190385759 153.52182312443119372 42.009497869018190385759 23.27954620356685567
43.009497869018190385759 153.90203683344091701 43.009497869018190385759 22.67476047268796435
44.009497869018190385759 154.26125761547419302 44.009497869018190385759 22.06528932009616284
46.009497869018190385759 154.92163991171020143 46.009497869018190385759 20.88963303200728561
48.009497869018190385759 155.51188827818282334 48.009497869018190385759 19.76584426939100325
50.009497869018218807469 156.03958758576922605 50.009497869018218807469 18.67789546770442399
52.009497869018190385759 156.51200091618966326 52.009497869018190385759 17.63136673131732124
54.009497869018190385759 156.93508578703125522 54.009497869018190385759 16.63471689411387899
56.009497869018190385759 157.31435511600906807 56.009497869018190385759 15.67937100184288468
58.009497869018190385759 157.65445813956151255 58.009497869018190385759 14.76942080946790092
60.009497869018190385759 157.95979195780429905 60.009497869018190385759 13.90372101747627021
62.009497869018190385759 158.23388459075965784 62.009497869018190385759 13.07895688817175994
64.009497869018190385759 158.48035573777855234 64.009497869018190385759 12.29495177312406184
66.009497869018218807469 158.70190995979385207 66.009497869018218807469 11.55889234620736161
68.009497869018190385759 158.90121864163745613 68.009497869018190385759 10.86307879742589932
70.009497869018190385759 159.08063279444567684 70.009497869018190385759 10.19569387390924931
72.009497869018190385759 159.24207824982667603 72.009497869018190385759 9.57462088142302825
74.009497869018218807469 159.38754579842938597 74.009497869018218807469 8.98280891967842976
76.009497869018190385759 159.51865979136414353 76.009497869018190385759 8.42316144588394167
78.009497869018190385759 159.63685447897873360 78.009497869018190385759 7.89296111360393393
80.009497869018218807469 159.74346353192265724 80.009497869018218807469 7.39532243410180801
82.009497869018190385759 159.83960177618010334 82.009497869018190385759 6.92257434856843901
84.009497869018190385759 159.92626937085492500 84.009497869018190385759 6.46154871022158606
86.009497869018218807469 160.00448355443290893 86.009497869018218807469 6.03939488539280500
88.009497869018190385759 160.07506858733228228 88.009497869018190385759 5.62793156895133961
91.009497869018190385759 160.16823776998850803 91.009497869018190385759 5.05865944415932756
94.009497869018190385759 160.24821389140930705 94.009497869018190385759 4.52916251168135897
97.009497869018190385759 160.31669674318604280 97.009497869018190385759 4.05074634016218305
99.504748934509137825444 160.36611112669228874 99.504748934509137825444 3.44268741996794780
nan nan nan nan

