Time Pressure difference Time.1 Pressure.1 difference.1
(hr) (psi) (hr) (psi)
0.000200000000006639311 0.61756313001342700 0.000200000000006639311 0.49500950423099105
0.000399999999999067768 1.15481732428822736 0.000399999999999067768 1.05518289229890994
0.000600000000019917934 1.64908608546890711 0.000600000000019917934 1.44854105608623351
0.000799999999998135536 2.11264988282301402 0.000799999999998135536 1.81360221454223947
0.001007140329448930061 2.56751082564956512 0.001007140329448930061 2.16721335701335915
0.001267914553963578328 3.11067817035170968 0.001267914553963578328 2.58205252135988861
0.001596209851982166583 3.75657444350975078 0.001596209851982166583 3.06323735073738801
0.002009509145210586212 4.52132794716992237 0.002009509145210586212 3.61837656407577102
0.002529822128153114136 5.42286401436219823 0.002529822128153114136 4.25548344295779479
0.003184857364431081805 6.48099956329736848 0.003184857364431081805 4.98300957707313152
0.004009497869020606231 7.71754968424644616 0.004009497869020606231 5.80992146443426005
0.005047658755856332391 9.15645717504944123 0.005047658755856332391 6.74582545830517599
0.006354625877790454069 10.82395625355730573 0.006354625877790454069 7.80113586562401196
0.007999999999995566213 12.74877892243621247 0.007999999999995566213 8.98727339151839999
0.010071403294347192059 14.96240924778230763 0.010071403294347192059 10.31690093399826047
0.012679145539706837553 17.49939715640812210 0.012679145539706837553 11.80426110359913672
0.015962098519764822413 20.39776651731276758 0.015962098519764822413 13.46569792250805797
0.020095091452077440408 23.69956687658380190 0.020095091452077440408 15.32025825463149715
0.025298221281346400247 27.45155522375613444 0.025298221281346400247 17.38982395933199854
0.031848573644282396344 31.70580398817985923 0.031848573644282396344 19.69785917593441837
0.040094978690177640601 36.51979967105361879 0.040094978690177640601 22.26611883142831161
0.050476587558421215363 41.95552694494834611 0.050476587558421215363 25.10968462102240295
0.063546258777947173257 48.07727115418857977 0.063546258777947173257 28.23227911770507248
0.079999999999998294697 54.94853203023632204 0.079999999999998294697 31.62424041734027114
0.100714032943528764008 62.62887786041679306 0.100714032943528764008 35.26358147359165685
0.126791455396883634421 71.17132709280775771 0.126791455396883634421 39.12177625860656605
0.159620985197506115583 80.62183942814235138 0.159620985197506115583 43.17345638833045740
0.200950914520774404082 91.02112265361192556 0.200950914520774404082 47.39772265679830099
0.252982212813464002465 102.40467850378949777 0.252982212813464002465 51.78801847378633028
0.318485736442795541734 114.80907543415550265 0.318485736442795541734 56.36602394281752026
0.400949786901833249431 128.27827140287266161 0.400949786901833249431 61.14957536862368670
0.504765875584169521062 142.85501815700592942 0.504765875584169521062 66.19064741350467784
0.635462587779429100010 158.60438325364691536 0.635462587779429100010 71.54880326125812928
0.800000000000011368684 175.59274808420087766 0.800000000000011368684 77.30722898998422465
1.007140329435344483500 193.91817108128913105 1.007140329435344483500 83.55197167147161963
1.267914553968893187630 213.67948943145142948 1.267914553968893187630 90.34316595231770464
1.596209851975103788391 234.99272426265036984 1.596209851975103788391 97.72626192801008926
2.009509145207672986544 257.96472719945671770 2.009509145207672986544 105.65021661798618879
2.529822128134725289783 282.67161848471852181 2.529822128134725289783 113.96599705224807053
3.184857364427998049905 309.13157322578507546 3.184857364427998049905 122.41813944783000068
4.009497869018190385759 337.27974978929745475 4.009497869018190385759 130.66923541490530170
5.009497869018204596614 365.95200930256532956 5.009497869018204596614 138.10331894000663056
6.009497869018190385759 390.27529344266156386 6.009497869018190385759 143.56345576833538757
7.009497869018190385759 411.33795772663785328 7.009497869018190385759 147.57217894844544048
8.009497869018204596614 429.84240588709468511 8.009497869018204596614 150.46520543994498098
9.009497869018190385759 446.28217898249658901 9.009497869018190385759 152.46682055647789866
10.009497869018190385759 461.02451663687389782 10.009497869018190385759 153.76519107397601260
11.009497869018204596614 474.33954939655779981 11.009497869018204596614 154.68451670614973636
12.009497869018190385759 486.43961358501076120 12.009497869018190385759 155.16566035004845503
13.009497869018190385759 497.49214476420922892 13.009497869018190385759 155.29294012191746788
14.009497869018204596614 507.63263925395341403 14.009497869018204596614 155.12874264140739911
15.009497869018190385759 516.97259562651083797 15.009497869018190385759 154.68078021364246410
16.009497869018190385759 525.60527553163819903 16.009497869018190385759 153.96558769225694618
17.009497869018190385759 533.59989902069423806 17.009497869018190385759 152.87586752568728343
18.009497869018204596614 541.01977341621477535 18.009497869018204596614 151.61491546235473038
19.009497869018190385759 547.91745215513162748 19.009497869018190385759 149.95818171450270029
20.009497869018190385759 554.33599695799057372 20.009497869018190385759 148.32776131099703321
21.009497869018204596614 560.31356397906961320 21.009497869018204596614 146.58710515404084163
22.009497869018190385759 565.89226082154607411 22.009497869018190385759 144.76258740403986280
23.009497869018190385759 571.11544146498408736 23.009497869018190385759 142.80928983482519357
24.009497869018204596614 576.01222964296619011 24.009497869018204596614 140.85013334275200236
25.009497869018190385759 580.60897523144399202 25.009497869018190385759 138.78499281821765976
26.009497869018190385759 584.92955316670531829 26.009497869018190385759 136.41020989278803199
27.009497869018204596614 588.99347619653622132 27.009497869018204596614 133.98261148534223253
28.009497869018190385759 592.80637013217051390 28.009497869018190385759 131.45659274227455171
29.009497869018190385759 596.37782178819702494 29.009497869018190385759 128.89684087644175747
30.009497869018190385759 599.72679271135905310 30.009497869018190385759 126.33166983597114097
31.009497869018190385759 602.86128003890428317 31.009497869018190385759 123.69686715087054552
32.009497869018190385759 605.80857605190055892 32.009497869018190385759 121.05133434450802099
33.009497869018190385759 608.59057673409495237 33.009497869018190385759 118.45013536976782120
34.009497869018190385759 611.21823743487482261 34.009497869018190385759 115.82731217294437442
35.009497869018190385759 613.69851967501108447 35.009497869018190385759 113.09926621287779369
36.009497869018190385759 616.04082664038196526 36.009497869018190385759 110.56088881388943435
37.009497869018190385759 618.25060305160775442 37.009497869018190385759 108.03999560536264823
38.009497869018190385759 620.33289429101739643 38.009497869018190385759 105.49709343053984867
39.009497869018190385759 622.29233345308148273 39.009497869018190385759 102.90261649019063839
40.009497869018190385759 624.14021082192175527 40.009497869018190385759 100.20566092381552892
41.009497869018190385759 625.88368287435616821 41.009497869018190385759 97.71310133131096620
42.009497869018190385759 627.52929544410346807 42.009497869018190385759 95.15648609476407671
43.009497869018190385759 629.08344088139199357 43.009497869018190385759 92.68438958190888854
44.009497869018190385759 630.55177652039446912 44.009497869018190385759 90.19314113790458975
46.009497869018190385759 633.25112719671403738 46.009497869018190385759 85.38757833820490362
48.009497869018190385759 635.66380139515274550 48.009497869018190385759 80.79402703663511431
50.009497869018218807469 637.82080271233792246 50.009497869018218807469 76.34697363987936569
52.009497869018190385759 639.75181941318078316 52.009497869018190385759 72.06922714598368884
54.009497869018190385759 641.48120319399413347 54.009497869018190385759 67.99536352570973463
56.009497869018190385759 643.03148842350253744 56.009497869018190385759 64.09033215960661778
58.009497869018190385759 644.42167912346121739 58.009497869018190385759 60.37085833178814198
60.009497869018190385759 645.66974869388218394 60.009497869018190385759 56.83226056452281227
62.009497869018190385759 646.79011811983320968 62.009497869018190385759 53.46098967653617962
64.009497869018190385759 647.79758313091974742 64.009497869018190385759 50.25632360719374958
66.009497869018218807469 648.70319877574718248 66.009497869018218807469 47.24763829993516140
68.009497869018190385759 649.51788449369792033 68.009497869018190385759 44.40346033786531876
70.009497869018190385759 650.25125017821801521 70.009497869018190385759 41.67548601915900264
72.009497869018190385759 650.91116777694116990 72.009497869018190385759 39.13681438627754261
74.009497869018218807469 651.50577476132195898 74.009497869018218807469 36.71774890209569264
76.009497869018190385759 652.04171076009208718 76.009497869018190385759 34.43015761520302220
78.009497869018190385759 652.52483835416660440 78.009497869018190385759 32.26293321551469262
80.009497869018218807469 652.96060899914925812 80.009497869018218807469 30.22880644722720689
82.009497869018190385759 653.35357961046895525 82.009497869018190385759 28.29642141557698665
84.009497869018190385759 653.70783839607520349 84.009497869018190385759 26.41195256205781661
86.009497869018218807469 654.02754337687542829 86.009497869018218807469 24.68637448545353763
88.009497869018190385759 654.31606376480976905 88.009497869018190385759 23.00449447769510414
91.009497869018190385759 654.69689816580569186 91.009497869018190385759 20.67756187543466950
94.009497869018190385759 655.02380516903247099 94.009497869018190385759 18.51321266295559909
97.009497869018190385759 655.30373277053467973 97.009497869018190385759 16.55765900333574336
99.504748934509137825444 655.50571690956712700 99.504748934509137825444 14.07218314060631137
nan nan nan nan

