Time Pressure difference Time.1 Pressure.1 difference.1
(hr) (psi) (hr) (psi)
0.000200000000006639311 0.07728242100506245 0.000200000000006639311 0.06194594697817362
0.000399999999999067768 0.14451490754903407 0.000399999999999067768 0.13204656262139683
0.000600000000019917934 0.20636815725710111 0.000600000000019917934 0.18127176688339564
0.000799999999998135536 0.26437895940626216 0.000799999999998135536 0.22695585773865679
0.001007140329448930061 0.32130067829436498 0.001007140329448930061 0.27120708300843616
0.001267914553963578328 0.38927314194931206 0.001267914553963578328 0.32312043953883612
0.001596209851982166583 0.47010119868047606 0.001596209851982166583 0.38333635392542287
0.002009509145210586212 0.56580315911596557 0.002009509145210586212 0.45280698828907617
0.002529822128153114136 0.67862221600248473 0.002529822128153114136 0.53253513209505665
0.003184857364431081805 0.81103827680496954 0.003184857364431081805 0.62357842509032424
0.004009497869020606231 0.96578130208721047 0.004009497869020606231 0.72705894312536967
0.005047658755856332391 1.14584751570517240 0.005047658755856332391 0.84417883412838168
0.006354625877790454069 1.35451989193332678 0.006354625877790454069 0.97624135409725521
0.007999999999995566213 1.59539398014703449 0.007999999999995566213 1.12467570062969813
0.010071403294347192059 1.87240972548346796 0.010071403294347192059 1.29106652048907211
0.012679145539706837553 2.18989073772412768 0.012679145539706837553 1.47719614712458203
0.015962098519764822413 2.55259535898727963 0.015962098519764822413 1.68510988658218075
0.020095091452077440408 2.96578570834363253 0.020095091452077440408 1.91719128101927394
0.025298221281346400247 3.43531299868876117 0.025298221281346400247 2.17617864654549242
0.031848573644282396344 3.96769362197064757 0.031848573644282396344 2.46500830724771181
0.040094978690177640601 4.57012149209351914 0.040094978690177640601 2.78640269480106229
0.050476587558421215363 5.25035342828553109 0.050476587558421215363 3.14224914648645637
0.063546258777947173257 6.01643415796497383 0.063546258777947173257 3.53301350852904505
0.079999999999998294697 6.87631009623025058 0.079999999999998294697 3.95748668131315640
0.100714032943528764008 7.83743567362600224 0.100714032943528764008 4.41291718553401857
0.126791455396883634421 8.90644566775835500 0.126791455396883634421 4.89573524769484614
0.159620985197506115583 10.08909151806516391 0.159620985197506115583 5.40276624476288703
0.200950914520774404082 11.39046743466845868 0.200950914520774404082 5.93139483078310192
0.252982212813464002465 12.81501613745280110 0.252982212813464002465 6.48080050799355512
0.318485736442795541734 14.36731383674324825 0.318485736442795541734 7.05369634459159567
0.400949786901833249431 16.05286147206185632 0.400949786901833249431 7.65231439224039445
0.504765875584169521062 17.87700903655880325 0.504765875584169521062 8.28315880822888140
0.635462587779429100010 19.84789914448118253 0.635462587779429100010 8.95368338444154688
0.800000000000011368684 21.97383882451668313 0.800000000000011368684 9.67429810359441689
1.007140329435344483500 24.26709919957507822 1.007140329435344483500 10.45577097579859149
1.267914553968893187630 26.74004884655142078 1.267914553968893187630 11.30562730632160751
1.596209851975103788391 29.40720675665635753 1.596209851975103788391 12.22955476212978532
2.009509145207672986544 32.28194444096921956 2.009509145207672986544 13.22116577744810328
2.529822128134725289783 35.37378765705045680 2.529822128134725289783 14.26181022863532633
3.184857364427998049905 38.68501085463601186 3.184857364427998049905 15.31951914172393536
4.009497869018190385759 42.20749969178356054 4.009497869018190385759 16.35206891888893921
5.009497869018204596614 45.79557275375957914 5.009497869018204596614 17.28237700376633157
6.009497869018190385759 48.83941101706362531 6.009497869018190385759 17.96566357416598692
7.009497869018190385759 51.47521229724554814 7.009497869018190385759 18.46731889884717503
8.009497869018204596614 53.79087604675029866 8.009497869018204596614 18.82935490849367355
9.009497869018190385759 55.84816444989528605 9.009497869018190385759 19.07983887459869976
10.009497869018190385759 57.69303421273168198 10.009497869018190385759 19.24231816145584872
11.009497869018204596614 59.35928972155345207 11.009497869018204596614 19.35736342094996942
12.009497869018190385759 60.87350294017608832 12.009497869018190385759 19.41757418134766411
13.009497869018190385759 62.25662690961355850 13.009497869018190385759 19.43350208966498016
14.009497869018204596614 63.52561776458718867 14.009497869018204596614 19.41295426515921463
15.009497869018190385759 64.69442853950698691 15.009497869018190385759 19.35689583282335491
16.009497869018190385759 65.77473008344063032 16.009497869018190385759 19.26739597952708039
17.009497869018190385759 66.77518465760660149 17.009497869018190385759 19.13102739047496215
18.009497869018204596614 67.70371459887242338 18.009497869018204596614 18.97323068356412179
19.009497869018190385759 68.56689649291951127 19.009497869018190385759 18.76590549076640357
20.009497869018190385759 69.37011912326602214 20.009497869018190385759 18.56187317420594596
21.009497869018204596614 70.11815738633227113 21.009497869018204596614 18.34404585354964112
22.009497869018190385759 70.81628066650688424 22.009497869018190385759 18.11572401561265266
23.009497869018190385759 71.46991432087175156 23.009497869018190385759 17.87128655204689665
24.009497869018204596614 72.08270292037119020 24.009497869018204596614 17.62611589745825214
25.009497869018190385759 72.65794391284136111 25.009497869018190385759 17.36768230306894978
26.009497869018190385759 73.19862502988081587 26.009497869018190385759 17.07049977237820571
27.009497869018204596614 73.70718811478639054 27.009497869018204596614 16.76670786344192265
28.009497869018190385759 74.18433718677668764 28.009497869018190385759 16.45059954271981439
29.009497869018190385759 74.63127194869205994 29.009497869018190385759 16.13026982782980667
30.009497869018190385759 75.05036526602127367 30.009497869018190385759 15.80926195241577759
31.009497869018190385759 75.44261790791249211 31.009497869018190385759 15.47954030862077879
32.009497869018190385759 75.81144525564934611 32.009497869018190385759 15.14847588753144336
33.009497869018190385759 76.15958739287997048 33.009497869018190385759 14.82295944311637648
34.009497869018190385759 76.48841528215457686 34.009497869018190385759 14.49473692355899068
35.009497869018190385759 76.79880009461807333 35.009497869018190385759 14.15334673013464872
36.009497869018190385759 77.09191855364419155 36.009497869018190385759 13.83569183578548767
37.009497869018190385759 77.36845201660480598 37.009497869018190385759 13.52022492919419783
38.009497869018190385759 77.62903186730882510 38.009497869018190385759 13.20200380021411846
39.009497869018190385759 77.87423789548144271 39.009497869018190385759 12.87732855739702487
40.009497869018190385759 78.10548297771512694 40.009497869018190385759 12.53982904458119840
41.009497869018190385759 78.32366268213476701 41.009497869018190385759 12.22790783289235250
42.009497869018190385759 78.52959616042332414 42.009497869018190385759 11.90797063869088213
43.009497869018190385759 78.72408335719786976 43.009497869018190385759 11.59861019570674934
44.009497869018190385759 78.90783223648679723 44.009497869018190385759 11.28685306235333741
46.009497869018190385759 79.24563147557526577 46.009497869018190385759 10.68548049102676778
48.009497869018190385759 79.54755575519951094 48.009497869018190385759 10.11063923457327718
50.009497869018218807469 79.81748489410315983 50.009497869018218807469 9.55413086136032774
52.009497869018190385759 80.05913410920301487 52.009497869018190385759 9.01880971048950286
54.009497869018190385759 80.27555079428786655 54.009497869018190385759 8.50900265090617935
56.009497869018190385759 80.46955492109219676 56.009497869018190385759 8.02032341568921581
58.009497869018190385759 80.64352467046695949 58.009497869018190385759 7.55486502235454793
60.009497869018190385759 80.79970925030544038 60.009497869018190385759 7.11204162645099469
62.009497869018190385759 80.93991331601070272 62.009497869018190385759 6.69015767090813451
64.009497869018190385759 81.06598841886369655 64.009497869018190385759 6.28912279639065019
66.009497869018218807469 81.17931799786688885 66.009497869018218807469 5.91261313561759039
68.009497869018190385759 81.28126852175925876 68.009497869018190385759 5.55669007610264920
70.009497869018190385759 81.37304258149065106 70.009497869018190385759 5.21530884794436300
72.009497869018190385759 81.45562527986524515 72.009497869018190385759 4.89761713289380651
74.009497869018218807469 81.53003494758368674 74.009497869018218807469 4.59489304186315994
76.009497869018190385759 81.59710247392358440 76.009497869018190385759 4.30862175342450548
78.009497869018190385759 81.65756150768037003 78.009497869018190385759 4.03741328852551451
80.009497869018218807469 81.71209424904800755 80.009497869018218807469 3.78286078426405847
82.009497869018190385759 81.76127095463591843 82.009497869018190385759 3.54104033498201298
84.009497869018190385759 81.80560322656636174 84.009497869018190385759 3.30521616052809231
86.009497869018218807469 81.84561140341959629 86.009497869018218807469 3.08927572478618107
88.009497869018190385759 81.88171711149254861 88.009497869018190385759 2.87880370577695244
91.009497869018190385759 81.92937508050103190 91.009497869018190385759 2.58760920876352696
94.009497869018190385759 81.97028452509876217 94.009497869018190385759 2.31676054744991156
97.009497869018190385759 82.00531492393388078 97.009497869018190385759 2.07204075464517201
99.504748934509137825444 82.03059140581956399 99.504748934509137825444 1.76100600744904234
nan nan nan nan

