Time Pressure difference Time.1 Pressure.1 difference.1
(hr) (psi) (hr) (psi)
0.000200000000006639311 0.32583939666999301 0.000200000000006639311 0.26117750617824553
0.000399999999999067768 0.60930609669322466 0.000399999999999067768 0.55673685861994338
0.000600000000019917934 0.87009277113804795 0.000600000000019917934 0.76428096307593829
0.000799999999998135536 1.11467885587505133 0.000799999999998135536 0.95689496776298533
0.001007140329448930061 1.35467313010597112 0.001007140329448930061 1.14346770133286602
0.001267914553963578328 1.64125973362412658 0.001267914553963578328 1.36234563697455235
0.001596209851982166583 1.98204829713930453 0.001596209851982166583 1.61622895168556657
0.002009509145210586212 2.38554845465109810 0.002009509145210586212 1.90913216684042952
0.002529822128153114136 2.86121799179425995 0.002529822128153114136 2.24528325964402287
0.003184857364431081805 3.41951273463716854 0.003184857364431081805 2.62914146794839398
0.004009497869020606231 4.07194278717850811 0.004009497869020606231 3.06543770615020739
0.005047658755856332391 4.83114087702721395 0.005047658755856332391 3.55924048983858210
0.006354625877790454069 5.71094873355672927 0.006354625877790454069 4.11604462808572436
0.007999999999995566213 6.72652597034965893 0.007999999999995566213 4.74187592697926785
0.010071403294347192059 7.89448424798435067 0.010071403294347192059 5.44341559989987189
0.012679145539706837553 9.23305284013416205 0.012679145539706837553 6.22817835003877818
0.015962098519764822413 10.76229394600042433 0.015962098519764822413 7.10478762991406043
0.020095091452077440408 12.50439379734071998 0.020095091452077440408 8.08329296862180513
0.025298221281346400247 14.48402237284991045 0.025298221281346400247 9.17523969894856251
0.031848573644282396344 16.72865418993029962 0.031848573644282396344 10.39300799812548703
0.040094978690177640601 19.26862034504294385 0.040094978690177640601 11.74807622672880392
0.050476587558421215363 22.13662526520386109 0.050476587558421215363 13.24840180680776314
0.063546258777947173257 25.36658726060908009 0.063546258777947173257 14.89594884677110898
0.079999999999998294697 28.99201013545727079 0.079999999999998294697 16.68561952121222802
0.100714032943528764008 33.04432338069342023 0.100714032943528764008 18.60581299846775494
0.126791455396883634421 37.55150065325144482 0.126791455396883634421 20.64147834163232531
0.159620985197506115583 42.53779126535582833 0.159620985197506115583 22.77923065359487609
0.200950914520774404082 48.02467350833187965 0.200950914520774404082 25.00804307032875329
0.252982212813464002465 54.03087884980099886 0.252982212813464002465 27.32445619586471963
0.318485736442795541734 60.57570158194450727 0.318485736442795541734 29.73990891233212963
0.400949786901833249431 67.68233485517971815 0.400949786901833249431 32.26381203214868520
0.504765875584169521062 75.37333539738305888 0.504765875584169521062 34.92358848874879840
0.635462587779429100010 83.68303423078550907 0.635462587779429100010 37.75066508034814916
0.800000000000011368684 92.64645558444871654 0.800000000000011368684 40.78893254488457387
1.007140329435344483500 102.31533716577600046 1.007140329435344483500 44.08379114120486975
1.267914553968893187630 112.74182756924383852 1.267914553968893187630 47.66696918341002487
1.596209851975103788391 123.98714200103762550 1.596209851975103788391 51.56244710519585084
2.009509145207672986544 136.10765764300532510 2.009509145207672986544 55.74329354815957061
2.529822128134725289783 149.14353714864517997 2.529822128134725289783 60.13087555857056543
3.184857364427998049905 163.10437008981668328 3.184857364427998049905 64.59040502997117983
4.009497869018190385759 177.95594464643878041 4.009497869018190385759 68.94385814450471628
5.009497869018204596614 193.08403647531068259 5.009497869018204596614 72.86623817804182579
6.009497869018190385759 205.91751672059257317 6.009497869018190385759 75.74712209648362204
7.009497869018190385759 217.03062482081904250 7.009497869018190385759 77.86220941135566420
8.009497869018204596614 226.79396387278504221 8.009497869018204596614 79.38863150608145247
9.009497869018190385759 235.46793659955849876 9.009497869018190385759 80.44472606587559937
10.009497869018190385759 243.24630641043628998 10.009497869018190385759 81.12977386992196216
11.009497869018204596614 250.27159990709026260 11.009497869018204596614 81.61482955859986532
12.009497869018190385759 256.65585023425592226 12.009497869018190385759 81.86869114297934402
13.009497869018190385759 262.48739994323557312 13.009497869018190385759 81.93584664831722364
14.009497869018204596614 267.83773976420542340 14.009497869018204596614 81.84921257742803391
15.009497869018190385759 272.76569870711057320 15.009497869018190385759 81.61285810595794032
16.009497869018190385759 277.32048359504699420 16.009497869018190385759 81.23550737314120340
17.009497869018190385759 281.53861639423325869 17.009497869018190385759 80.66054791659712464
18.009497869018204596614 285.45349938984048777 18.009497869018204596614 79.99524288205414280
19.009497869018190385759 289.09286088906611667 19.009497869018190385759 79.12111504215025093
20.009497869018190385759 292.47942116836480864 20.009497869018190385759 78.26087068043587180
21.009497869018204596614 295.63331222345493643 21.009497869018204596614 77.34246359874984478
22.009497869018190385759 298.57675091824523861 22.009497869018190385759 76.37980936312361280
23.009497869018190385759 301.33261173124299148 23.009497869018190385759 75.34920816538692634
24.009497869018204596614 303.91626096156500125 24.009497869018204596614 74.31551567576994444
25.009497869018190385759 306.34160136225005999 25.009497869018190385759 73.22590376429072023
26.009497869018190385759 308.62122985571375011 26.009497869018190385759 71.97291795921623248
27.009497869018204596614 310.76544178126158613 27.009497869018204596614 70.69206558640379967
28.009497869018190385759 312.77720543613958171 28.009497869018190385759 69.35928455849435181
29.009497869018190385759 314.66157902691787740 29.009497869018190385759 68.00870522003917529
30.009497869018190385759 316.42856706754906781 30.009497869018190385759 66.65526661018544985
31.009497869018190385759 318.08238901714452140 31.009497869018190385759 65.26508886877948612
32.009497869018190385759 319.63744486165666103 32.009497869018190385759 63.86924968797040236
33.009497869018190385759 321.10528738619660771 33.009497869018190385759 62.49680197638256374
34.009497869018190385759 322.49169686530041190 34.009497869018190385759 61.11294486689737226
35.009497869018190385759 323.80034634487623180 35.009497869018190385759 59.67356999732447065
36.009497869018190385759 325.03619714509443384 36.009497869018190385759 58.33426828060908065
37.009497869018190385759 326.20212201595541046 37.009497869018190385759 57.00419159335932306
38.009497869018190385759 327.30078300811294412 38.009497869018190385759 55.66250250901087782
39.009497869018190385759 328.33462464040826490 39.009497869018190385759 54.29360148524150986
40.009497869018190385759 329.30960390604212762 40.009497869018190385759 52.87063056634235636
41.009497869018190385759 330.22949671386544424 41.009497869018190385759 51.55550329543802235
42.009497869018190385759 331.09775678448755798 42.009497869018190385759 50.20657890907506982
43.009497869018190385759 331.91775685737485446 43.009497869018190385759 48.90224839270953794
44.009497869018190385759 332.69248186194431582 44.009497869018190385759 47.58781291154380000
46.009497869018190385759 334.11671649161468167 46.009497869018190385759 45.05229612432907516
48.009497869018190385759 335.38969453543575128 48.009497869018190385759 42.62864109711976823
50.009497869018218807469 336.52777414811066592 50.009497869018218807469 40.28228146951921218
52.009497869018190385759 337.54661948745052769 52.009497869018190385759 38.02525175233412114
54.009497869018190385759 338.45907902456508509 54.009497869018190385759 35.87579496057740158
56.009497869018190385759 339.27704237001034926 56.009497869018190385759 33.81541764452750698
58.009497869018190385759 340.01053644845529789 58.009497869018190385759 31.85294441857593029
60.009497869018190385759 340.66904440669321730 60.009497869018190385759 29.98590523584743650
62.009497869018190385759 341.26017506209910835 62.009497869018190385759 28.20715126112619231
64.009497869018190385759 341.79173495520905135 64.009497869018190385759 26.51630151991733442
66.009497869018218807469 342.26955696397936890 66.009497869018218807469 24.92885538260389566
68.009497869018190385759 342.69940241606610698 68.009497869018190385759 23.42820680735171024
70.009497869018190385759 343.08634169493353738 70.009497869018190385759 21.98886973727893235
72.009497869018190385759 343.43452820699945960 72.009497869018190385759 20.64941277652523866
74.009497869018218807469 343.74825545467717802 74.009497869018218807469 19.37306255488250883
76.009497869018190385759 344.03102664681301803 76.009497869018190385759 18.16608090633034678
78.009497869018190385759 344.28593500535504290 78.009497869018190385759 17.02260737864811446
80.009497869018218807469 344.51585683382398884 80.009497869018218807469 15.94935898230251681
82.009497869018190385759 344.72319645738389227 82.009497869018190385759 14.92979168262686507
84.009497869018190385759 344.91011090119872051 84.009497869018190385759 13.93550597411844372
86.009497869018218807469 345.07879402522854662 86.009497869018218807469 13.02505440720660168
88.009497869018190385759 345.23102349710370618 88.009497869018190385759 12.13765886760012336
91.009497869018190385759 345.43195979886928626 91.009497869018190385759 10.90991990721919613
94.009497869018190385759 345.60444286257853719 94.009497869018190385759 9.76796338924827623
97.009497869018190385759 345.75213859820769358 97.009497869018190385759 8.73617183039585932
99.504748934509137825444 345.85870971102298199 99.504748934509137825444 7.42478208546082730
nan nan nan nan

