Time Pressure difference Time.1 Pressure.1 difference.1
(hr) (psi) (hr) (psi)
0.000200000000006639311 0.13089274908965534 0.000200000000006639311 0.10491745974681660
0.000399999999999067768 0.24476398756052617 0.000399999999999067768 0.22364643038578924
0.000600000000019917934 0.34952444652554066 0.000600000000019917934 0.30701884841512050
0.000799999999998135536 0.44777697629168728 0.000799999999998135536 0.38439370499880610
0.001007140329448930061 0.54418493260667222 0.001007140329448930061 0.45934172617645047
0.001267914553963578328 0.65930946564387982 0.001267914553963578328 0.54726705075046123
0.001596209851982166583 0.79620743560296858 0.001596209851982166583 0.64925436520702251
0.002009509145210586212 0.95829724246668035 0.002009509145210586212 0.76691634052564261
0.002529822128153114136 1.14937816764384793 0.002529822128153114136 0.90195139489973564
0.003184857364431081805 1.37365041476877736 0.003184857364431081805 1.05615084609892751
0.004009497869020606231 1.63573770083239234 0.004009497869020606231 1.23141514691504050
0.005047658755856332391 1.94071471128443651 0.005047658755856332391 1.42978036771293460
0.006354625877790454069 2.29414179895013959 0.006354625877790454069 1.65345382495751325
0.007999999999995566213 2.70210872313191430 0.007999999999995566213 1.90485614160705619
0.010071403294347192059 3.17128854406208971 0.010071403294347192059 2.18667122389140145
0.012679145539706837553 3.70900413236158633 0.012679145539706837553 2.50191779873352615
0.015962098519764822413 4.32331466206854564 0.015962098519764822413 2.85405998808513495
0.020095091452077440408 5.02313255106849521 0.020095091452077440408 3.24713478226687879
0.025298221281346400247 5.81836796174312720 0.025298221281346400247 3.68578005000497821
0.031848573644282396344 6.72005766604037635 0.031848573644282396344 4.17496902488801602
0.040094978690177640601 7.74038595057280787 0.040094978690177640601 4.71931267227567375
0.050476587558421215363 8.89249049115026935 0.050476587558421215363 5.32200756341850312
0.063546258777947173257 10.18999659186860463 0.063546258777947173257 5.98384269913027467
0.079999999999998294697 11.64636304586745119 0.079999999999998294697 6.70277023501687808
0.100714032943528764008 13.27421537515034622 0.100714032943528764008 7.47413000793149163
0.126791455396883634421 15.08479086070784447 0.126791455396883634421 8.29187591501469434
0.159620985197506115583 17.08783067924550281 0.159620985197506115583 9.15063111725606149
0.200950914520774404082 19.29196286232135549 0.200950914520774404082 10.04596601970471248
0.252982212813464002465 21.70471201658672555 0.252982212813464002465 10.97649095047557033
0.318485736442795541734 24.33382884061018814 0.318485736442795541734 11.94680101606504330
0.400949786901833249431 27.18863024096962988 0.400949786901833249431 12.96067662829904599
0.504765875584169521062 30.27817746732482007 0.504765875584169521062 14.02913383736062869
0.635462587779429100010 33.61626161407622959 0.635462587779429100010 15.16479708355865519
0.800000000000011368684 37.21695224332555085 0.800000000000011368684 16.38529768897072714
1.007140329435344483500 41.10103287855958598 1.007140329435344483500 17.70887336441563065
1.267914553968893187630 45.28945210046546777 1.267914553968893187630 19.14826967196812646
1.596209851975103788391 49.80680063289545956 1.596209851975103788391 20.71311977730089637
2.009509145207672986544 54.67572571983975394 2.009509145207672986544 22.39260510054273112
2.529822128134725289783 59.91236107680618517 2.529822128134725289783 24.15513804489587102
3.184857364427998049905 65.52055892496910872 3.184857364427998049905 25.94657296075765274
4.009497869018190385759 71.48657605455233011 4.009497869018190385759 27.69539600676685254
5.009497869018204596614 77.56367277213334432 5.009497869018204596614 29.27105294331594720
6.009497869018190385759 82.71900244331496310 6.009497869018190385759 30.42833109858743867
7.009497869018190385759 87.18324244938885670 7.009497869018190385759 31.27798155840783068
8.009497869018204596614 91.10526753864013472 8.009497869018204596614 31.89115966483613818
9.009497869018190385759 94.58968393315598178 9.009497869018190385759 32.31540277859959787
10.009497869018190385759 97.71432821615817943 10.009497869018190385759 32.59059292210539382
11.009497869018204596614 100.53645466353198401 11.009497869018204596614 32.78544435259994572
12.009497869018190385759 103.10106804282077064 12.009497869018190385759 32.88742293777801962
13.009497869018190385759 105.44365638745360059 13.009497869018190385759 32.91439993564880240
14.009497869018204596614 107.59293819587740870 14.009497869018204596614 32.87959821486425227
15.009497869018190385759 109.57254563448030638 15.009497869018190385759 32.78465240153865778
16.009497869018190385759 111.40224554672826685 16.009497869018190385759 32.63306706442424598
17.009497869018190385759 113.09670914982019951 17.009497869018190385759 32.40210044512875953
18.009497869018204596614 114.66935445574787877 18.009497869018204596614 32.13484115774824090
19.009497869018190385759 116.13132018620603958 19.009497869018190385759 31.78369578616291946
20.009497869018190385759 117.49173328985594367 20.009497869018190385759 31.43812753829475426
21.009497869018204596614 118.75868097865284767 21.009497869018204596614 31.06919477898497561
22.009497869018190385759 119.94108797570537206 22.009497869018190385759 30.68248752193854756
23.009497869018190385759 121.04814317408907698 23.009497869018190385759 30.26848533139474640
24.009497869018204596614 122.08601936062868276 24.009497869018204596614 29.85324133983920447
25.009497869018190385759 123.06030140192950739 25.009497869018190385759 29.41553399078344810
26.009497869018190385759 123.97604960015853237 26.009497869018190385759 28.91219781267660238
27.009497869018204596614 124.83739968990849434 27.009497869018204596614 28.39766737231605376
28.009497869018190385759 125.64554406409024523 28.009497869018190385759 27.86227670298490722
29.009497869018190385759 126.40251465183882829 29.009497869018190385759 27.31973628497300410
30.009497869018190385759 127.11233036046843381 30.009497869018190385759 26.77604727075825863
31.009497869018190385759 127.77668618637432019 31.009497869018190385759 26.21759980198834583
32.009497869018190385759 128.40136673929796984 32.009497869018190385759 25.65687807978298451
33.009497869018190385759 128.99101288163453205 33.009497869018190385759 25.10555293068359717
34.009497869018190385759 129.54794660400955308 34.009497869018190385759 24.54964451918099400
35.009497869018190385759 130.07364340349727172 35.009497869018190385759 23.97143410148931508
36.009497869018190385759 130.57009628905504428 36.009497869018190385759 23.43342401015920373
37.009497869018190385759 131.03845927136669047 37.009497869018190385759 22.89911969989648099
38.009497869018190385759 131.47980172120773545 38.009497869018190385759 22.36015058054282889
39.009497869018190385759 131.89510562477940425 39.009497869018190385759 21.81025016928505167
40.009497869018190385759 132.28676396225623080 40.009497869018190385759 21.23862937280419416
41.009497869018190385759 132.65629355172373494 41.009497869018190385759 20.71033038363749768
42.009497869018190385759 133.00508178522147773 42.009497869018190385759 20.16845477544041287
43.009497869018190385759 133.33448352390271907 43.009497869018190385759 19.64449294407989655
44.009497869018190385759 133.64569784197763624 44.009497869018190385759 19.11647185335520049
46.009497869018190385759 134.21782628295630957 46.009497869018190385759 18.09793092173903162
48.009497869018190385759 134.72919353132888887 48.009497869018190385759 17.12432591080879263
50.009497869018218807469 135.18637081163419111 50.009497869018218807469 16.18177118861028418
52.009497869018190385759 135.59565056333482858 52.009497869018190385759 15.27510113127951819
54.009497869018190385759 135.96219413807315846 54.009497869018190385759 14.41164412946271511
56.009497869018190385759 136.29077770419218041 56.009497869018190385759 13.58397119053669044
58.009497869018190385759 136.58542917160167462 58.009497869018190385759 12.79562724506896387
60.009497869018190385759 136.84995800952631839 60.009497869018190385759 12.04562005200709152
62.009497869018190385759 137.08742075144152750 62.009497869018190385759 11.33107785703359838
64.009497869018190385759 137.30095335807544643 64.009497869018190385759 10.65184761911209144
66.009497869018218807469 137.49289895134211292 66.009497869018218807469 10.01415558104601011
68.009497869018190385759 137.66557191072740807 68.009497869018190385759 9.41133093970538859
70.009497869018190385759 137.82100905693911841 70.009497869018190385759 8.83313570642828871
72.009497869018190385759 137.96087885238438275 72.009497869018190385759 8.29506325210843087
74.009497869018218807469 138.08690603734896740 74.009497869018218807469 7.78234136820066702
76.009497869018190385759 138.20049788376249467 76.009497869018190385759 7.29748549228654841
78.009497869018190385759 138.30289696796313592 78.009497869018190385759 6.83814142561078153
80.009497869018218807469 138.39525872811731233 80.009497869018218807469 6.40700745442921615
82.009497869018190385759 138.47854900424820812 82.009497869018190385759 5.99743768447403980
84.009497869018190385759 138.55363429364390981 84.009497869018190385759 5.59802376738091301
86.009497869018218807469 138.62139589047643540 86.009497869018218807469 5.23228681315136956
88.009497869018190385759 138.68254790054592718 88.009497869018190385759 4.87581168185645986
91.009497869018190385759 138.76326590210987888 91.009497869018190385759 4.38261739862651467
94.009497869018190385759 138.83255397043754442 94.009497869018190385759 3.92388272901426483
97.009497869018190385759 138.89188473603215357 97.009497869018190385759 3.50940235921884947
99.504748934509137825444 138.93469535400069503 99.504748934509137825444 2.98260476937315300
nan nan nan nan

