Time Pressure difference Time.1 Pressure.1 difference.1
(hr) (psi) (hr) (psi)
0.000200000000006639311 0.45603590773257574 0.000200000000006639311 0.36553689433066422
0.000399999999999067768 0.85276814814970558 0.000399999999999067768 0.77919368033346781
0.000600000000019917934 1.21775804507568686 0.000600000000019917934 1.06966673251012745
0.000799999999998135536 1.56007403973965508 0.000799999999998135536 1.33924402539477660
0.001007140329448930061 1.89596346200728894 0.001007140329448930061 1.60036612045518623
0.001267914553963578328 2.29706223402521958 0.001267914553963578328 1.90670169277421309
0.001596209851982166583 2.77402058680821506 0.001596209851982166583 2.26202983622659426
0.002009509145210586212 3.33874837135997682 0.002009509145210586212 2.67196916512923321
0.002529822128153114136 4.00448244578042711 0.002529822128153114136 3.14243704074110042
0.003184857364431081805 4.78585649826355919 0.003184857364431081805 3.67967449039785954
0.004009497869020606231 5.69897975555966507 0.004009497869020606231 4.29030277249655079
0.005047658755856332391 6.76153263771971158 0.005047658755856332391 4.98141564282963945
0.006354625877790454069 7.99288765059755946 0.006354625877790454069 5.76070348588920744
0.007999999999995566213 9.41426177474150983 0.007999999999995566213 6.63659985506713745
0.010071403294347192059 11.04890423596100391 0.010071403294347192059 7.61845559387695737
0.012679145539706837553 12.92232822711084594 0.012679145539706837553 8.71678807537478484
0.015962098519764822413 15.06261225348349875 0.015962098519764822413 9.94366644784980735
0.020095091452077440408 17.50080755824395595 0.020095091452077440408 11.31315575736598689
0.025298221281346400247 20.27144156883908366 0.025298221281346400247 12.84141453592159898
0.031848573644282396344 23.41296686838535379 0.031848573644282396344 14.54576974096622521
0.040094978690177640601 26.96783402992121381 0.040094978690177640601 16.44228617202428921
0.050476587558421215363 30.98181527501822430 0.050476587558421215363 18.54210081935701737
0.063546258777947173257 35.50238174294646853 0.063546258777947173257 20.84796259537409568
0.079999999999998294697 40.57642444171904117 0.079999999999998294697 23.35273672306412251
0.100714032943528764008 46.24793122725253625 0.100714032943528764008 26.04018699571875928
0.126791455396883634421 52.55605326470020344 0.126791455396883634421 28.88924853369481482
0.159620985197506115583 59.53472922822236768 0.159620985197506115583 31.88118820107829876
0.200950914520774404082 67.21401954691748415 0.200950914520774404082 35.00057310056695314
0.252982212813464002465 75.62014027055481336 0.252982212813464002465 38.24256155617818820
0.318485736442795541734 84.78009516276421209 0.318485736442795541734 41.62316311448193318
0.400949786901833249431 94.72634472252717330 0.400949786901833249431 45.15554889114827120
0.504765875584169521062 105.49045872924338596 0.504765875584169521062 48.87809927378304309
0.635462587779429100010 117.12048594265921508 0.635462587779429100010 52.83479834963255684
0.800000000000011368684 129.66544531584167999 0.800000000000011368684 57.08707439508417281
1.007140329435344483500 143.19774752902412729 1.007140329435344483500 61.69846837070340229
1.267914553968893187630 157.79037832874936953 1.267914553968893187630 66.71338635712299947
1.596209851975103788391 173.52901284333259468 1.596209851975103788391 72.16539071346855394
2.009509145207672986544 190.49255503454807581 2.009509145207672986544 78.01678904710367135
2.529822128134725289783 208.73721545376622544 2.529822128134725289783 84.15752882663187506
3.184857364427998049905 228.27641540348275839 3.184857364427998049905 90.39896430476736100
4.009497869018190385759 249.06227295602008098 4.009497869018190385759 96.49193821506536040
5.009497869018204596614 270.23513651993266649 5.009497869018204596614 101.98159403123375455
6.009497869018190385759 288.19652447006012608 6.009497869018190385759 106.01360037007856363
7.009497869018190385759 303.75012661888138155 7.009497869018190385759 108.97381872743153508
8.009497869018204596614 317.41462892451755806 8.009497869018204596614 111.11015734291312640
9.009497869018190385759 329.55448391604875269 9.009497869018190385759 112.58823840416349071
10.009497869018190385759 340.44087756161491143 10.009497869018190385759 113.54701257435657169
11.009497869018204596614 350.27328619475235882 11.009497869018204596614 114.22588324974981333
12.009497869018190385759 359.20850834067874757 12.009497869018190385759 114.58118098002451291
13.009497869018190385759 367.37018581798992045 13.009497869018190385759 114.67516998856363841
14.009497869018204596614 374.85837509733880779 14.009497869018204596614 114.55391931242598957
15.009497869018190385759 381.75541165204577965 15.009497869018190385759 114.22312405855223005
16.009497869018190385759 388.13016400588838906 16.009497869018190385759 113.69499429360574538
17.009497869018190385759 394.03374730389481329 17.009497869018190385759 112.89029676361350596
18.009497869018204596614 399.51291047082378327 18.009497869018204596614 111.95915403364413976
19.009497869018190385759 404.60646128704763669 19.009497869018190385759 110.73574861668464564
20.009497869018190385759 409.34619843008323414 20.009497869018190385759 109.53177413608013069
21.009497869018204596614 413.76029809051925668 21.009497869018204596614 108.24639670337850816
22.009497869018190385759 417.87985438344156819 22.009497869018190385759 106.89909216420078053
23.009497869018190385759 421.73688180334227127 23.009497869018190385759 105.45669091523168959
24.009497869018204596614 425.35288660219038093 24.009497869018204596614 104.00996317869510221
25.009497869018190385759 428.74732669289272735 25.009497869018190385759 102.48497214874021211
26.009497869018190385759 431.93783238353097431 26.009497869018190385759 100.73132748565519989
27.009497869018204596614 434.93881274941520587 27.009497869018204596614 98.93868153652667274
28.009497869018190385759 437.75442213818678283 28.009497869018190385759 97.07335766199530269
29.009497869018190385759 440.39173987741713745 29.009497869018190385759 95.18312375881551191
30.009497869018190385759 442.86476801120653590 30.009497869018190385759 93.28888809758859679
31.009497869018190385759 445.17941197912330153 31.009497869018190385759 91.34323335267215782
32.009497869018190385759 447.35582560766050619 32.009497869018190385759 89.38965501200986807
33.009497869018190385759 449.41017785888635672 33.009497869018190385759 87.46881473190295253
34.009497869018190385759 451.35055864694817274 34.009497869018190385759 85.53200617055080102
35.009497869018190385759 453.18210866644000134 35.009497869018190385759 83.51749647061437543
36.009497869018190385759 454.91177164537793942 36.009497869018190385759 81.64304641837381382
37.009497869018190385759 456.54356820609143597 37.009497869018190385759 79.78150746506486257
38.009497869018190385759 458.08122408186738994 38.009497869018190385759 77.90371611838061483
39.009497869018190385759 459.52816055441758181 39.009497869018190385759 75.98783968554100454
40.009497869018190385759 460.89271486849918347 40.009497869018190385759 73.99628850631248156
41.009497869018190385759 462.18017168286729657 41.009497869018190385759 72.15567234724765910
42.009497869018190385759 463.39536473042596754 42.009497869018190385759 70.26775466975249174
43.009497869018190385759 464.54301440508658061 43.009497869018190385759 68.44224935304433188
44.009497869018190385759 465.62729833242207178 44.009497869018190385759 66.60260140397689099
46.009497869018190385759 467.62061816668290248 46.009497869018190385759 63.05396145605885039
48.009497869018190385759 469.40224342032138338 48.009497869018190385759 59.66188016797745064
50.009497869018218807469 470.99506851925735873 50.009497869018218807469 56.37797940712626144
52.009497869018190385759 472.42101659034204886 52.009497869018190385759 53.21910234568130704
54.009497869018190385759 473.69807000232935934 54.009497869018190385759 50.21078140850041649
56.009497869018190385759 474.84286912896743615 56.009497869018190385759 47.32713366915708519
58.009497869018190385759 475.86944737978245712 58.009497869018190385759 44.58050981659665979
60.009497869018190385759 476.79107710765822503 60.009497869018190385759 41.96745284076938276
62.009497869018190385759 477.61840740528833749 62.009497869018190385759 39.47795742743088709
64.009497869018190385759 478.36236409329472963 64.009497869018190385759 37.11149037509797921
66.009497869018218807469 479.03111070813349670 66.009497869018218807469 34.88974417864434230
68.009497869018190385759 479.63271064641725161 68.009497869018190385759 32.78947747610121866
70.009497869018190385759 480.17426027816549094 70.009497869018190385759 30.77502067931132856
72.009497869018190385759 480.66157259740305108 72.009497869018190385759 28.90035335176074938
74.009497869018218807469 481.10065667267861045 74.009497869018218807469 27.11400849027359783
76.009497869018190385759 481.49641549927889628 76.009497869018190385759 25.42474998642387973
78.009497869018190385759 481.85317826604182301 78.009497869018190385759 23.82437571156947698
80.009497869018218807469 482.17497056870666938 80.009497869018218807469 22.32228660984647206
82.009497869018190385759 482.46515743501373663 82.009497869018190385759 20.89532810282178588
84.009497869018190385759 482.72675777838708200 84.009497869018190385759 19.50375301933243577
86.009497869018218807469 482.96284206522369686 86.009497869018218807469 18.22950990752206124
88.009497869018190385759 483.17589827051909879 88.009497869018190385759 16.98753538093606963
91.009497869018190385759 483.45712322277643125 91.009497869018190385759 15.26922551117216464
94.009497869018190385759 483.69852580125848363 94.009497869018190385759 13.67097440161884769
97.009497869018190385759 483.90523671330350908 97.009497869018190385759 12.22690715578907650
99.504748934509137825444 484.05439072803437739 99.504748934509137825444 10.39152193584795469
nan nan nan nan

