Time Pressure difference Time.1 Pressure.1 difference.1
(hr) (psi) (hr) (psi)
0.000200000000006639311 0.47761928657182739 0.000200000000006639311 0.38283711375700097
0.000399999999999067768 0.89312816737511147 0.000399999999999067768 0.81607154917367786
0.000600000000019917934 1.27539239530064297 0.000600000000019917934 1.12029218091900362
0.000799999999998135536 1.63390960497924187 0.000799999999998135536 1.40262809377223929
0.001007140329448930061 1.98569608387328267 0.001007140329448930061 1.67610863913321806
0.001267914553963578328 2.40577815655160432 0.001267914553963578328 1.99694253624902296
0.001596209851982166583 2.90531011076402335 0.001596209851982166583 2.36908773687243324
0.002009509145210586212 3.49676546985182268 0.002009509145210586212 2.79842877447122795
0.002529822128153114136 4.19400756916850881 0.002529822128153114136 3.29116306862350338
0.003184857364431081805 5.01236268367755944 0.003184857364431081805 3.85382702353119333
0.004009497869020606231 5.96870246154798423 0.004009497869020606231 4.49335527012615810
0.005047658755856332391 7.08154410606980456 0.005047658755856332391 5.21717729920783668
0.006354625877790454069 8.37117698978614655 0.006354625877790454069 6.03334746766411723
0.007999999999995566213 9.85982225568347381 0.007999999999995566213 6.95069847416191866
0.010071403294347192059 11.57182947460954203 0.010071403294347192059 7.97902372122075221
0.012679145539706837553 13.53391933404280856 0.012679145539706837553 9.12933835069786603
0.015962098519764822413 15.77549924563309780 0.015962098519764822413 10.41428272248086628
0.020095091452077440408 18.32909005336695429 0.020095091452077440408 11.84858755656956752
0.025298221281346400247 21.23085330721162123 0.025298221281346400247 13.44917613991178129
0.031848573644282396344 24.52106148353031045 0.031848573644282396344 15.23419548443180283
0.040094978690177640601 28.24417426645183937 0.040094978690177640601 17.22047070841016847
0.050476587558421215363 32.44813019643130048 0.050476587558421215363 19.41966589630368745
0.063546258777947173257 37.18264713841416125 0.063546258777947173257 21.83466006172004370
0.079999999999998294697 42.49683536949506646 0.079999999999998294697 24.45798075117860648
0.100714032943528764008 48.43676461358052165 0.100714032943528764008 27.27262332681384649
0.126791455396883634421 55.04343899173181853 0.126791455396883634421 30.25652594521319472
0.159620985197506115583 62.35240343597029522 0.159620985197506115583 33.39006886403009844
0.200950914520774404082 70.39514108272578596 0.200950914520774404082 36.65708877402889954
0.252982212813464002465 79.19910874137495682 0.252982212813464002465 40.05251485120341215
0.318485736442795541734 88.79258821626908116 0.318485736442795541734 43.59311434585436729
0.400949786901833249431 99.20957630481471767 0.400949786901833249431 47.29268173943162878
0.504765875584169521062 110.48313692864269342 0.504765875584169521062 51.19141389590101454
0.635462587779429100010 122.66359291093775141 0.635462587779429100010 55.33537659213424575
0.800000000000011368684 135.80228318575174740 0.800000000000011368684 59.78890539698891615
1.007140329435344483500 149.97504550368020659 1.007140329435344483500 64.61854855313362123
1.267914553968893187630 165.25831989850698278 1.267914553968893187630 69.87081380303263245
1.596209851975103788391 181.74183635194830799 1.596209851975103788391 75.58085195334263062
2.009509145207672986544 199.50823321175568026 2.009509145207672986544 81.70918669666124856
2.529822128134725289783 218.61638137600553478 2.529822128134725289783 88.14055690850300095
3.184857364427998049905 239.08033735387661523 3.184857364427998049905 94.67738856957313942
4.009497869018190385759 260.84995305012176914 4.009497869018190385759 101.05873223745777523
5.009497869018204596614 283.02489107278444180 5.009497869018204596614 106.80820382507839383
6.009497869018190385759 301.83635997933015460 6.009497869018190385759 111.03103794484563593
7.009497869018190385759 318.12608681000398292 7.009497869018190385759 114.13135823972217509
8.009497869018204596614 332.43730601865496510 8.009497869018204596614 116.36880601105100652
9.009497869018190385759 345.15171903268623055 9.009497869018190385759 117.91684205382620121
10.009497869018190385759 356.55334657598143622 10.009497869018190385759 118.92099332215055085
11.009497869018204596614 366.85110584671775769 11.009497869018204596614 119.63199375469979202
12.009497869018190385759 376.20921636901618967 12.009497869018190385759 120.00410710274321957
13.009497869018190385759 384.75717171166576236 13.009497869018190385759 120.10254444603764057
14.009497869018204596614 392.59976384240371772 14.009497869018204596614 119.97555518828124832
15.009497869018190385759 399.82322502794409047 15.009497869018190385759 119.62910397582722055
16.009497869018190385759 406.49968321838082375 16.009497869018190385759 119.07597875635654816
17.009497869018190385759 412.68267274881202411 17.009497869018190385759 118.23319630509749345
18.009497869018204596614 418.42115508852685934 18.009497869018204596614 117.25798422454944614
19.009497869018190385759 423.75577472200711782 19.009497869018190385759 115.97667717716896618
20.009497869018190385759 428.71983530234672344 20.009497869018190385759 114.71572069824574669
21.009497869018204596614 433.34284654976517004 21.009497869018204596614 113.36950860842389943
22.009497869018190385759 437.65737420922278034 22.009497869018190385759 111.95843851090342014
23.009497869018190385759 441.69694796502716372 23.009497869018190385759 110.44777094328082967
24.009497869018204596614 445.48409192229405562 24.009497869018204596614 108.93257212303029746
25.009497869018190385759 449.03918490278533682 25.009497869018190385759 107.33540594509278776
26.009497869018190385759 452.38069162611031970 26.009497869018190385759 105.49876435902207561
27.009497869018204596614 455.52370312381503936 27.009497869018204596614 103.62127562451496487
28.009497869018190385759 458.47257036152080900 28.009497869018190385759 101.66766924599812683
29.009497869018190385759 461.23470771894375275 29.009497869018190385759 99.68797389091211869
30.009497869018190385759 463.82477993234761016 30.009497869018190385759 97.70408738159662221
31.009497869018190385759 466.24897193538708962 31.009497869018190385759 95.66634821363831520
32.009497869018190385759 468.52839139977879768 32.009497869018190385759 93.62031044005918545
33.009497869018190385759 470.67997253617716069 33.009497869018190385759 91.60856016196248675
34.009497869018190385759 472.71218814016253873 34.009497869018190385759 89.58008585190512463
35.009497869018190385759 474.63042220637839819 35.009497869018190385759 87.47023294479612332
36.009497869018190385759 476.44194709729657689 36.009497869018190385759 85.50706846260219152
37.009497869018190385759 478.15097372424230571 37.009497869018190385759 83.55742613898397053
38.009497869018190385759 479.76140415291757790 38.009497869018190385759 81.59076222474672591
39.009497869018190385759 481.27682158829077252 39.009497869018190385759 79.58421072409332453
40.009497869018190385759 482.70595786227545432 40.009497869018190385759 77.49840292416848797
41.009497869018190385759 484.05434774724727731 41.009497869018190385759 75.57067363391129788
42.009497869018190385759 485.32705374820176303 42.009497869018190385759 73.59340412740490933
43.009497869018190385759 486.52901966700670755 43.009497869018190385759 71.68150084914260844
44.009497869018190385759 487.66462084891833229 44.009497869018190385759 69.75478559256207234
46.009497869018190385759 489.75228101121285817 46.009497869018190385759 66.03819474634561004
48.009497869018190385759 491.61822746006180296 48.009497869018190385759 62.48557220646188171
50.009497869018218807469 493.28643817436727659 50.009497869018218807469 59.04625018822688531
52.009497869018190385759 494.77987386408341308 52.009497869018190385759 55.73786902158378354
54.009497869018190385759 496.11736797190525294 54.009497869018190385759 52.58716953623097368
56.009497869018190385759 497.31634843125442558 56.009497869018190385759 49.56704381227749678
58.009497869018190385759 498.39151282829124057 58.009497869018190385759 46.69042707509206735
60.009497869018190385759 499.35676167305877016 60.009497869018190385759 43.95369870040885019
62.009497869018190385759 500.22324806111112139 62.009497869018190385759 41.34637984002685585
64.009497869018190385759 501.00241491297742868 64.009497869018190385759 38.86791205697284823
66.009497869018218807469 501.70281213096114925 66.009497869018218807469 36.54101451381681898
68.009497869018190385759 502.33288473807971286 68.009497869018190385759 34.34134587573349506
70.009497869018190385759 502.90006496308637907 70.009497869018190385759 32.23154837558407593
72.009497869018190385759 503.41044091880689848 72.009497869018190385759 30.26815633482118173
74.009497869018218807469 503.87030607245418423 74.009497869018218807469 28.39726690737051484
76.009497869018190385759 504.28479546947380641 76.009497869018190385759 26.62805876440730302
78.009497869018190385759 504.65844319161021758 78.009497869018190385759 24.95194158494146919
80.009497869018218807469 504.99546535898127786 80.009497869018218807469 23.37876124328958838
82.009497869018190385759 505.29938626018230252 82.009497869018190385759 21.88426729547442307
84.009497869018190385759 505.57336768850916542 84.009497869018190385759 20.42683140650694895
86.009497869018218807469 505.82062543014268385 86.009497869018218807469 19.09228060543531669
88.009497869018190385759 506.04376521156660829 88.009497869018190385759 17.79152560507197478
91.009497869018190385759 506.33830004706049976 91.009497869018190385759 15.99189114605206719
94.009497869018190385759 506.59112778574547065 94.009497869018190385759 14.31799761757332767
97.009497869018190385759 506.80762196233001760 97.009497869018190385759 12.80558520438367509
99.504748934509137825444 506.96383517470474089 99.504748934509137825444 10.88333442441480337
nan nan nan nan

