Time Pressure difference Time.1 Pressure.1 difference.1
(hr) (psi) (hr) (psi)
0.000200000000006639311 0.24855697566493057 0.000200000000006639311 0.19923155920007193
0.000399999999999067768 0.46479118914419065 0.000399999999999067768 0.42469029599854657
0.000600000000019917934 0.66372461388094683 0.000600000000019917934 0.58300919619254266
0.000799999999998135536 0.85029989646878912 0.000799999999998135536 0.72993911002432865
0.001007140329448930061 1.03337245181160631 0.001007140329448930061 0.87226061832442980
0.001267914553963578328 1.25198659167481430 0.001267914553963578328 1.03922519743571606
0.001596209851982166583 1.51194709845882858 0.001596209851982166583 1.23289259776014393
0.002009509145210586212 1.81974529553513209 0.002009509145210586212 1.45632517855135313
0.002529822128153114136 2.18259577579177488 0.002529822128153114136 1.71274812754896599
0.003184857364431081805 2.60847445783219944 0.003184857364431081805 2.00556304285806952
0.004009497869020606231 3.10616148509129841 0.004009497869020606231 2.33837876302483760
0.005047658755856332391 3.68529336132204133 0.005047658755856332391 2.71506165571020031
0.006354625877790454069 4.35642884162340316 0.006354625877790454069 3.13980327398846937
0.007999999999995566213 5.13113199020262467 0.007999999999995566213 3.61720022634956972
0.010071403294347192059 6.02207452250088338 0.010071403294347192059 4.15234907941079978
0.012679145539706837553 7.04316210241003304 0.012679145539706837553 4.75098220291419526
0.015962098519764822413 8.20969858701314337 0.015962098519764822413 5.41967774333187879
0.020095091452077440408 9.53860808899708879 0.020095091452077440408 6.16610168760252986
0.025298221281346400247 11.04870937416114884 0.025298221281346400247 6.99906105240306964
0.031848573644282396344 12.76096056795965161 0.031848573644282396344 7.92799969087777612
0.040094978690177640601 14.69849885294942560 0.040094978690177640601 8.96167353192774208
0.050476587558421215363 16.88627183691833267 0.050476587558421215363 10.10615266032130499
0.063546258777947173257 19.35015310264410360 0.063546258777947173257 11.36293533824206392
0.079999999999998294697 22.11570003922702199 0.079999999999998294697 12.72813283989907163
0.100714032943528764008 25.20688770706741266 0.100714032943528764008 14.19289581293373637
0.126791455396883634421 28.64505498549308982 0.126791455396883634421 15.74574309393747917
0.159620985197506115583 32.44869974729066087 0.159620985197506115583 17.37646440883198906
0.200950914520774404082 36.63420607366342097 0.200950914520774404082 19.07664823954565136
0.252982212813464002465 41.21586271234819776 0.252982212813464002465 20.84365568787116274
0.318485736442795541734 46.20838774520125014 0.318485736442795541734 22.68621256774053663
0.400949786901833249431 51.62947338311786183 0.400949786901833249431 24.61149763990829342
0.504765875584169521062 57.49632636082426274 0.504765875584169521062 26.64042968051991878
0.635462587779429100010 63.83513508630434075 0.635462587779429100010 28.79698169590659873
0.800000000000011368684 70.67261675993202630 0.800000000000011368684 31.11463444129014988
1.007140329435344483500 78.04823796620091514 1.007140329435344483500 33.62802016540627648
1.267914553968893187630 86.00177872269240709 1.267914553968893187630 36.36134187708841381
1.596209851975103788391 94.57993524438126087 1.596209851975103788391 39.33289234306606375
2.009509145207672986544 103.82571320203612686 2.009509145207672986544 42.52212777071147087
2.529822128134725289783 113.76974949159472317 2.529822128134725289783 45.86906532993524621
3.184857364427998049905 124.41935923518069274 3.184857364427998049905 49.27088588824724980
4.009497869018190385759 135.74844495465524119 4.009497869018190385759 52.59178922561577707
5.009497869018204596614 147.28846372155106792 5.009497869018204596614 55.58386117427549777
6.009497869018190385759 157.07810570352896207 6.009497869018190385759 57.78145852231762802
7.009497869018190385759 165.55541252357349435 7.009497869018190385759 59.39489051250848206
8.009497869018204596614 173.00308782603474356 8.009497869018204596614 60.55927659758777537
9.009497869018190385759 179.61977214966321981 9.009497869018190385759 61.36488719127690672
10.009497869018190385759 185.55327219770461511 10.009497869018190385759 61.88745570846609922
11.009497869018204596614 190.91231018553679633 11.009497869018204596614 62.25746613764989945
12.009497869018190385759 195.78234729407986947 12.009497869018190385759 62.45111696163167636
13.009497869018190385759 200.23077303362197199 13.009497869018190385759 62.50234455865224703
14.009497869018204596614 204.31212199961825604 14.009497869018204596614 62.43625831226881928
15.009497869018190385759 208.07127016760355787 15.009497869018190385759 62.25596227313457121
16.009497869018190385759 211.54575351160633545 16.009497869018190385759 61.96811139361412302
17.009497869018190385759 214.76343173662664299 17.009497869018190385759 61.52952052612216960
18.009497869018204596614 217.74978479096807860 18.009497869018204596614 61.02201219849001035
19.009497869018190385759 220.52596439614657697 19.009497869018190385759 60.35520955138384380
20.009497869018190385759 223.10930204509878649 20.009497869018190385759 59.69899750622992940
21.009497869018204596614 225.51515483712267951 21.009497869018204596614 58.99841774520019300
22.009497869018190385759 227.76047025173838279 22.009497869018190385759 58.26408534751096369
23.009497869018190385759 229.86269741037128256 23.009497869018190385759 57.47792161334001548
24.009497869018204596614 231.83355804119381105 24.009497869018204596614 56.68939977831168164
25.009497869018190385759 233.68365744940868467 25.009497869018190385759 55.85822146122175980
26.009497869018190385759 235.42260482583290582 26.009497869018190385759 54.90241818683801966
27.009497869018204596614 237.05825366647513874 27.009497869018204596614 53.92535772296186991
28.009497869018190385759 238.59286824936287985 28.009497869018190385759 52.90868501577453742
29.009497869018190385759 240.03030707822583167 29.009497869018190385759 51.87843539220937572
30.009497869018190385759 241.37820180152783678 30.009497869018190385759 50.84600465776966871
31.009497869018190385759 242.63977110923207192 31.009497869018190385759 49.78554856015872332
32.009497869018190385759 243.82599960600734335 32.009497869018190385759 48.72077380043896255
33.009497869018190385759 244.94569999331665144 33.009497869018190385759 47.67384253326618904
34.009497869018190385759 246.00328158314579241 34.009497869018190385759 46.61820794333837625
35.009497869018190385759 247.00154625025811583 35.009497869018190385759 45.52022326718981304
36.009497869018190385759 247.94427859145022808 36.009497869018190385759 44.49857644482359831
37.009497869018190385759 248.83366999935060448 37.009497869018190385759 43.48396666416512346
38.009497869018190385759 249.67175114080407639 38.009497869018190385759 42.46049870879676291
39.009497869018190385759 250.46038674492683640 39.009497869018190385759 41.41627292784448144
40.009497869018190385759 251.20412092832702911 40.009497869018190385759 40.33080152176115263
41.009497869018190385759 251.90583403173073407 41.009497869018190385759 39.32759546254567340
42.009497869018190385759 252.56816062406423384 42.009497869018190385759 38.29860827038419302
43.009497869018190385759 253.19367350017694207 43.009497869018190385759 37.30363819700278327
44.009497869018190385759 253.78464962545754702 44.009497869018190385759 36.30095984919046259
46.009497869018190385759 254.87108501603938748 46.009497869018190385759 34.36681563330230915
48.009497869018190385759 255.84213878023621191 48.009497869018190385759 32.51800186254649105
50.009497869018218807469 256.71028925400747767 50.009497869018218807469 30.72815060815889154
52.009497869018190385759 257.48748537824747018 52.009497869018190385759 29.00644204184461827
54.009497869018190385759 258.18352823027720433 54.009497869018190385759 27.36679230967121867
56.009497869018190385759 258.80748744891809565 56.009497869018190385759 25.79509422883829117
58.009497869018190385759 259.36701177798835261 58.009497869018190385759 24.29807939622138591
60.009497869018190385759 259.86933515638776271 60.009497869018190385759 22.87386360939644092
62.009497869018190385759 260.32026174608841984 62.009497869018190385759 21.51699359021805691
64.009497869018190385759 260.72574653634535480 64.009497869018190385759 20.22717872352668422
66.009497869018218807469 261.09023896611245164 66.009497869018218807469 19.01624224698630528
68.009497869018190385759 261.41813389430677717 68.009497869018190385759 17.87151673124906281
70.009497869018190385759 261.71329911344287211 70.009497869018190385759 16.77356088933457201
72.009497869018190385759 261.97890292713418603 72.009497869018190385759 15.75179564363143392
74.009497869018218807469 262.21822050709351970 74.009497869018218807469 14.77816951301934978
76.009497869018190385759 262.43392417288936258 76.009497869018190385759 13.85745915290583952
78.009497869018190385759 262.62837349767465867 78.009497869018190385759 12.98519409012260084
80.009497869018218807469 262.80376258477599549 80.009497869018218807469 12.16649819803845922
82.009497869018190385759 262.96192550274793120 82.009497869018190385759 11.38875134764485253
84.009497869018190385759 263.10450767463231614 84.009497869018190385759 10.63028981359035186
86.009497869018218807469 263.23318262180896454 86.009497869018218807469 9.93577868242042150
88.009497869018190385759 263.34930638561121441 88.009497869018190385759 9.25885516182317048
91.009497869018190385759 263.50258471836821172 91.009497869018190385759 8.32231069845566829
94.009497869018190385759 263.63415833747984607 94.009497869018190385759 7.45120284179836467
97.009497869018190385759 263.74682367427379859 97.009497869018190385759 6.66413107575068775
99.504748934509137825444 263.82811830520347485 99.504748934509137825444 5.66377607801178584
nan nan nan nan

