Time Pressure difference Time.1 Pressure.1 difference.1
(hr) (psi) (hr) (psi)
0.000200000000006639311 0.54724308927909093 0.000200000000006639311 0.43864427319679700
0.000399999999999067768 1.02332177777964661 0.000399999999999067768 0.93503241640016144
0.000600000000019917934 1.46130965409082414 0.000600000000019917934 1.28360007901215289
0.000799999999998135536 1.87208884768758632 0.000799999999998135536 1.60709283047373197
0.001007140329448930061 2.27515615440874663 0.001007140329448930061 1.92043934454622378
0.001267914553963578328 2.75647468083026359 0.001267914553963578328 2.28804203132905570
0.001596209851982166583 3.32882470416985798 0.001596209851982166583 2.71443580347191338
0.002009509145210586212 4.00649804563197165 0.002009509145210586212 3.20636299815507986
0.002529822128153114136 4.80537893493651325 0.002529822128153114136 3.77092444888931988
0.003184857364431081805 5.74302779791627138 0.003184857364431081805 4.41560938847743145
0.004009497869020606231 6.83877570667159773 0.004009497869020606231 5.14836332699586130
0.005047658755856332391 8.11383916526365390 0.005047658755856332391 5.97769877139556804
0.006354625877790454069 9.59146518071707099 0.006354625877790454069 6.91284418306704929
0.007999999999995566213 11.29711412968981143 0.007999999999995566213 7.96391982608056548
0.010071403294347192059 13.25868508315320504 0.010071403294347192059 9.14214671265234813
0.012679145539706837553 15.50679387253301478 0.012679145539706837553 10.46014569044974252
0.015962098519764822413 18.07513470418019708 0.015962098519764822413 11.93239973741976812
0.020095091452077440408 21.00096906989274714 0.020095091452077440408 13.57578690883918426
0.025298221281346400247 24.32572988260690039 0.025298221281346400247 15.40969744310591771
0.031848573644282396344 28.09556024206242597 0.031848573644282396344 17.45492368915947168
0.040094978690177640601 32.36140083590546368 0.040094978690177640601 19.73074340642914493
0.050476587558421215363 37.17817833002187200 0.050476587558421215363 22.25052098322842298
0.063546258777947173257 42.60285809153576508 0.063546258777947173257 25.01755511444891411
0.079999999999998294697 48.69170933006285651 0.079999999999998294697 28.02328406767694702
0.100714032943528764008 55.49751747270304492 0.100714032943528764008 31.24822439486251113
0.126791455396883634421 63.06726391764023987 0.126791455396883634421 34.66709824043377353
0.159620985197506115583 71.44167507386683269 0.159620985197506115583 38.25742584129395851
0.200950914520774404082 80.65682345630098382 0.200950914520774404082 42.00068772068034662
0.252982212813464002465 90.74416832466577887 0.252982212813464002465 45.89107386741382300
0.318485736442795541734 101.73611419531705735 0.318485736442795541734 49.94779573737832123
0.400949786901833249431 113.67161366703260228 0.400949786901833249431 54.18665866937791975
0.504765875584169521062 126.58855047509207736 0.504765875584169521062 58.65371912853964886
0.635462587779429100010 140.54458313119104673 0.635462587779429100010 63.40175801955906820
0.800000000000011368684 155.59853437901003304 0.800000000000011368684 68.50448927410100453
1.007140329435344483500 171.83729703482893569 1.007140329435344483500 74.03816204484408559
1.267914553968893187630 189.34845399449923775 1.267914553968893187630 80.05606362854760505
1.596209851975103788391 208.23481541199907952 1.596209851975103788391 86.59846885616225620
2.009509145207672986544 228.59106604145767960 2.009509145207672986544 93.62014685652439994
2.529822128134725289783 250.48465854451950463 2.529822128134725289783 100.98903459195825860
3.184857364427998049905 273.93169848417932144 3.184857364427998049905 108.47875716572082183
4.009497869018190385759 298.87472754722415402 4.009497869018190385759 115.79032585807843247
5.009497869018204596614 324.28216382391917705 5.009497869018204596614 122.37791283748050830
6.009497869018190385759 345.83582936407213992 6.009497869018190385759 127.21632044409426499
7.009497869018190385759 364.50015194265762375 7.009497869018190385759 130.76858247291784210
8.009497869018204596614 380.89755470942100146 8.009497869018204596614 133.33218881149576873
9.009497869018190385759 395.46538069925856007 9.009497869018190385759 135.10588608499620022
10.009497869018190385759 408.52905307393785961 10.009497869018190385759 136.25641508922788603
11.009497869018204596614 420.32794343370284196 11.009497869018204596614 137.07105989969977600
12.009497869018190385759 431.05021000881447435 12.009497869018190385759 137.49741717602938706
13.009497869018190385759 440.84422298158790454 13.009497869018190385759 137.61020398627636041
14.009497869018204596614 449.83005011680660346 14.009497869018204596614 137.46470317491116475
15.009497869018190385759 458.10649398245487873 15.009497869018190385759 137.06774887026270449
16.009497869018190385759 465.75619680706608960 16.009497869018190385759 136.43399315232687741
17.009497869018190385759 472.84049676467378731 17.009497869018190385759 135.46835611633622420
18.009497869018204596614 479.41549256498848308 18.009497869018204596614 134.35098484037297339
19.009497869018190385759 485.52775354445719813 19.009497869018190385759 132.88289834002156908
20.009497869018190385759 491.21543811609984687 20.009497869018190385759 131.43812896329615114
21.009497869018204596614 496.51235770862314212 21.009497869018204596614 129.89567604405419843
22.009497869018190385759 501.45582526012992730 22.009497869018190385759 128.27891059704094801
23.009497869018190385759 506.08425816401074826 23.009497869018190385759 126.54802909827803603
24.009497869018204596614 510.42346392262845711 24.009497869018204596614 124.81195581443411413
25.009497869018190385759 514.49679203147127282 25.009497869018190385759 122.98196657848826874
26.009497869018190385759 518.32539886023721465 26.009497869018190385759 120.87759298278623987
27.009497869018204596614 521.92657529929829252 27.009497869018204596614 118.72641784383202435
28.009497869018190385759 525.30530656582413940 28.009497869018190385759 116.48802919439435755
29.009497869018190385759 528.47008785290051947 29.009497869018190385759 114.21974851057861144
30.009497869018190385759 531.43772161344782035 30.009497869018190385759 111.94666571710632752
31.009497869018190385759 534.21529437494803005 31.009497869018190385759 109.61188002320659507
32.009497869018190385759 536.82699072919263017 32.009497869018190385759 107.26758601441184737
33.009497869018190385759 539.29221343066365080 33.009497869018190385759 104.96257767828355156
34.009497869018190385759 541.62067037633789823 34.009497869018190385759 102.63840740466096690
35.009497869018190385759 543.81853039972793340 35.009497869018190385759 100.22099576473725335
36.009497869018190385759 545.89412597445345909 36.009497869018190385759 97.97165570204859364
37.009497869018190385759 547.85228184730965495 37.009497869018190385759 95.73780895807783509
38.009497869018190385759 549.69746889824091340 38.009497869018190385759 93.48445934205673780
39.009497869018190385759 551.43379266530098448 39.009497869018190385759 91.18540762264919408
40.009497869018190385759 553.07125784219897469 40.009497869018190385759 88.79554620757498640
41.009497869018190385759 554.61620601944071041 41.009497869018190385759 86.58680681669719092
42.009497869018190385759 556.07443767651113831 42.009497869018190385759 84.32130560370299577
43.009497869018190385759 557.45161728610389673 43.009497869018190385759 82.13069922365318121
44.009497869018190385759 558.75275799890641792 44.009497869018190385759 79.92312168477226919
46.009497869018190385759 561.14474180001946024 46.009497869018190385759 75.66475374727062331
48.009497869018190385759 563.28269210438577375 48.009497869018190385759 71.59425620157294645
50.009497869018218807469 565.19408222310880774 50.009497869018218807469 67.65357528855150804
52.009497869018190385759 566.90521990841045863 52.009497869018190385759 63.86292281481756561
54.009497869018190385759 568.43768400279520847 54.009497869018190385759 60.25293769020050405
56.009497869018190385759 569.81144295476087791 56.009497869018190385759 56.79256040298850650
58.009497869018190385759 571.04333685573897128 58.009497869018190385759 53.49661177991598748
60.009497869018190385759 572.14929252918977909 60.009497869018190385759 50.36094340892326215
62.009497869018190385759 573.14208888634595951 62.009497869018190385759 47.37354891291706593
64.009497869018190385759 574.03483691195367555 64.009497869018190385759 44.53378845011756937
66.009497869018218807469 574.83733284976017330 66.009497869018218807469 41.86769301437320934
68.009497869018190385759 575.55925277570077014 68.009497869018190385759 39.34737297132146239
70.009497869018190385759 576.20911233379865735 70.009497869018190385759 36.93002481517359570
72.009497869018190385759 576.79388711688363856 72.009497869018190385759 34.68042402211290209
74.009497869018218807469 577.32078800721421885 74.009497869018218807469 32.53681018832831739
76.009497869018190385759 577.79569859913465280 76.009497869018190385759 30.50969998370865355
78.009497869018190385759 578.22381391925011940 78.009497869018190385759 28.58925085388337450
80.009497869018218807469 578.60996468244798052 80.009497869018218807469 26.78674393181576363
82.009497869018190385759 578.95818892201646122 82.009497869018190385759 25.07439372338614447
84.009497869018190385759 579.27210933406445292 84.009497869018190385759 23.40450362319892363
86.009497869018218807469 579.55541047826841350 86.009497869018218807469 21.87541188902647349
88.009497869018190385759 579.81107792462296402 88.009497869018190385759 20.38504245712328355
91.009497869018190385759 580.14854786733167202 91.009497869018190385759 18.32307061340659615
94.009497869018190385759 580.43823096151015761 94.009497869018190385759 16.40516928194261581
97.009497869018190385759 580.68628405596416542 97.009497869018190385759 14.67228858694689286
99.504748934509137825444 580.86526887364118465 99.504748934509137825444 12.46982632301754279
nan nan nan nan

