Time Pressure difference Time.1 Pressure.1 difference.1
(hr) (psi) (hr) (psi)
0.000200000000006639311 0.01810218870388850 0.000200000000006639311 0.01450986145434698
0.000399999999999067768 0.03385033870517915 0.000399999999999067768 0.03092982547888575
0.000600000000019917934 0.04833848728544711 0.000600000000019917934 0.04246005350421880
0.000799999999998135536 0.06192660310416952 0.000799999999998135536 0.05316083154238808
0.001007140329448930061 0.07525961833922062 0.001007140329448930061 0.06352598340738144
0.001267914553963578328 0.09118109631245147 0.001267914553963578328 0.07568586872080846
0.001596209851982166583 0.11011379428551692 0.001596209851982166583 0.08979049731586482
0.002009509145210586212 0.13253046970283877 0.002009509145210586212 0.10606289815780164
0.002529822128153114136 0.15895655509968110 0.002529822128153114136 0.12473795886911238
0.003184857364431081805 0.18997292970206492 0.003184857364431081805 0.14606341488602190
0.004009497869020606231 0.22621904373213936 0.004009497869020606231 0.17030209478612263
0.005047658755856332391 0.26839671539040078 0.005047658755856332391 0.19773558276881012
0.006354625877790454069 0.31727492964204057 0.006354625877790454069 0.22866914600476246
0.007999999999995566213 0.37369588724164771 0.007999999999995566213 0.26343755149884823
0.010071403294347192059 0.43858245822135289 0.010071403294347192059 0.30241197777221507
0.012679145539706837553 0.51294738000745344 0.012679145539706837553 0.34600990833548767
0.015962098519764822413 0.59790521922224582 0.015962098519764822413 0.39471042388411443
0.020095091452077440408 0.69468854429670679 0.020095091452077440408 0.44907183159010022
0.025298221281346400247 0.80466790960277290 0.025298221281346400247 0.50973553883047573
0.031848573644282396344 0.92936967721834995 0.031848573644282396344 0.57738933322919372
0.040094978690177640601 1.07047890805794155 0.040094978690177640601 0.65267090148493367
0.050476587558421215363 1.22981251473354791 0.050476587558421215363 0.73602232260043121
0.063546258777947173257 1.40925484781161559 0.063546258777947173257 0.82755271370950612
0.079999999999998294697 1.61066722974762633 0.079999999999998294697 0.92697886228956816
0.100714032943528764008 1.83579574337185636 0.100714032943528764008 1.03365627769265300
0.126791455396883634421 2.08619448073619163 0.126791455396883634421 1.14674879675735153
0.159620985197506115583 2.36321062585310138 0.159620985197506115583 1.26551281408860428
0.200950914520774404082 2.66803741712954912 0.200950914520774404082 1.38933572612937528
0.252982212813464002465 3.00171549165561125 0.252982212813464002465 1.51802534421470647
0.318485736442795541734 3.36531675455247248 0.318485736442795541734 1.65221716179622957
0.400949786901833249431 3.76012971417665076 0.400949786901833249431 1.79243400178603829
0.504765875584169521062 4.18740752207683720 0.504765875584169521062 1.94019936048604436
0.635462587779429100010 4.64905745726586250 0.635462587779429100010 2.09725917113045268
0.800000000000011368684 5.14702531024715082 0.800000000000011368684 2.26605180804914275
1.007140329435344483500 5.68418539809866630 1.007140329435344483500 2.44909950784471508
1.267914553968893187630 6.26343486495799073 1.267914553968893187630 2.64816495463389012
1.596209851975103788391 6.88817455561320102 1.596209851975103788391 2.86458039473310233
2.009509145207672986544 7.56153653572251905 2.009509145207672986544 3.09684964156442044
2.529822128134725289783 8.28575206381362150 2.529822128134725289783 3.34060419769836470
3.184857364427998049905 9.06135389387870482 3.184857364427998049905 3.58835583499839883
4.009497869018190385759 9.88644136924659911 4.009497869018190385759 3.83021434136137318
5.009497869018204596614 10.72689091529503713 5.009497869018204596614 4.04812434322454617
6.009497869018190385759 11.43986204003292073 6.009497869018190385759 4.20817344980464547
7.009497869018190385759 12.05725693448994740 7.009497869018190385759 4.32567830063087033
8.009497869018204596614 12.59966465959916881 8.009497869018204596614 4.41047952811563615
9.009497869018190385759 13.08155203330880489 9.009497869018190385759 4.46915144810420006
10.009497869018190385759 13.51368368946868337 10.009497869018190385759 4.50720965944010832
11.009497869018204596614 13.90397777261612511 11.009497869018204596614 4.53415719769999193
12.009497869018190385759 14.25865834634755380 12.009497869018190385759 4.54826061905440771
13.009497869018190385759 14.58263333017975150 13.009497869018190385759 4.55199148046206759
14.009497869018204596614 14.87987443134474574 14.009497869018204596614 4.54717847652377927
15.009497869018190385759 15.15364992817280765 15.009497869018190385759 4.53404767255321861
16.009497869018190385759 15.40669353305816536 16.009497869018190385759 4.51308374295228898
17.009497869018190385759 15.64103424412407151 17.009497869018190385759 4.48114155092206268
18.009497869018204596614 15.85852774388002651 18.009497869018204596614 4.44418016011411865
19.009497869018190385759 16.06071449383700411 19.009497869018190385759 4.39561750234168080
20.009497869018190385759 16.24885673157582389 20.009497869018190385759 4.34782614891310448
21.009497869018204596614 16.42407290130305242 21.009497869018204596614 4.29680353326387987
22.009497869018190385759 16.58759727323585054 22.009497869018190385759 4.24332274239575646
23.009497869018190385759 16.74070065173572175 23.009497869018190385759 4.18606712029927319
24.009497869018204596614 16.88423672008694254 24.009497869018204596614 4.12863975976499642
25.009497869018190385759 17.01897785345833825 25.009497869018190385759 4.06810576468281759
26.009497869018190385759 17.14562388087298572 26.009497869018190385759 3.99849544217867914
27.009497869018204596614 17.26474676562564170 27.009497869018204596614 3.92733697702243267
28.009497869018190385759 17.37651141311886605 28.009497869018190385759 3.85329358658301935
29.009497869018190385759 17.48119883482877057 29.009497869018190385759 3.77826140111328757
30.009497869018190385759 17.57936483708606445 30.009497869018190385759 3.70307036723252514
31.009497869018190385759 17.67124383428580714 31.009497869018190385759 3.62583827048774987
32.009497869018190385759 17.75763582564758991 32.009497869018190385759 3.54829164933168961
33.009497869018190385759 17.83918263256648018 33.009497869018190385759 3.47204455424347591
34.009497869018190385759 17.91620538140557883 34.009497869018190385759 3.39516360371652048
35.009497869018190385759 17.98890813027090019 35.009497869018190385759 3.31519833318469237
36.009497869018190385759 18.05756650806080543 36.009497869018190385759 3.24079268225605999
37.009497869018190385759 18.12234011199752004 37.009497869018190385759 3.16689953296440674
38.009497869018190385759 18.18337683378405245 38.009497869018190385759 3.09236125050060418
39.009497869018190385759 18.24081248002268296 39.009497869018190385759 3.01631119362452838
40.009497869018190385759 18.29497799478011899 40.009497869018190385759 2.93725725368568646
41.009497869018190385759 18.34608315077030483 41.009497869018190385759 2.86419462752433462
42.009497869018190385759 18.39431982136041555 42.009497869018190385759 2.78925438383750368
43.009497869018190385759 18.43987538096526890 43.009497869018190385759 2.71679157737275156
44.009497869018190385759 18.48291565899690525 44.009497869018190385759 2.64376738397465516
46.009497869018190385759 18.56203980508970375 46.009497869018190385759 2.50290534024050437
48.009497869018190385759 18.63276080752420683 48.009497869018190385759 2.36825783872887596
50.009497869018218807469 18.69598745267281359 50.009497869018218807469 2.23790452608440082
52.009497869018190385759 18.75258997152502971 52.009497869018190385759 2.11251398624078490
54.009497869018190385759 18.80328216803139441 54.009497869018190385759 1.99309972003207769
56.009497869018190385759 18.84872457611168173 56.009497869018190385759 1.87863431358486155
58.009497869018190385759 18.88947424713640189 58.009497869018190385759 1.76960802325421862
60.009497869018190385759 18.92605802259406644 60.009497869018190385759 1.66588362421374669
62.009497869018190385759 18.95889861456106118 62.009497869018190385759 1.56706395895145500
64.009497869018190385759 18.98842971973383698 64.009497869018190385759 1.47312786221762959
66.009497869018218807469 19.01497538688774114 66.009497869018218807469 1.38493641014466085
68.009497869018190385759 19.03885568978144960 68.009497869018190385759 1.30156704485287267
70.009497869018190385759 19.06035231638519889 70.009497869018190385759 1.22160387429327399
72.009497869018190385759 19.07969601149996919 72.009497869018190385759 1.14718959869584669
74.009497869018218807469 19.09712530303762179 74.009497869018218807469 1.07628125304902822
76.009497869018190385759 19.11283481371183512 76.009497869018190385759 1.00922671701835243
78.009497869018190385759 19.12699638918639167 78.009497869018190385759 0.94570040992489524
80.009497869018218807469 19.13976982410133232 80.009497869018218807469 0.88607549901680649
82.009497869018190385759 19.15128869207687856 82.009497869018190385759 0.82943287125704801
84.009497869018190385759 19.16167282784437376 84.009497869018190385759 0.77419477633991352
86.009497869018218807469 19.17104411251269624 86.009497869018218807469 0.72361413373370009
88.009497869018190385759 19.17950130539465192 88.009497869018190385759 0.67431438153334022
91.009497869018190385759 19.19066443327051275 91.009497869018190385759 0.60610666151217751
94.009497869018190385759 19.20024682569880881 94.009497869018190385759 0.54266463273601528
97.009497869018190385759 19.20845214434487502 97.009497869018190385759 0.48534287946643667
99.504748934509137825444 19.21437276172350295 99.504748934509137825444 0.41248789363671268
nan nan nan nan

