Time Pressure difference Time.1 Pressure.1 difference.1
(hr) (psi) (hr) (psi)
0.000200000000006639311 0.19773159968862825 0.000200000000006639311 0.15849233280902081
0.000399999999999067768 0.36974985354887996 0.000399999999999067768 0.33784886292321353
0.000600000000019917934 0.52800501496411456 0.000600000000019917934 0.46379443058454378
0.000799999999998135536 0.67642904929169778 0.000799999999998135536 0.58067985223223906
0.001007140329448930061 0.82206660032071766 0.001007140329448930061 0.69389920337293576
0.001267914553963578328 0.99597812895139304 0.001267914553963578328 0.82672256602729244
0.001596209851982166583 1.20278144527256958 0.001596209851982166583 0.98078850914252336
0.002009509145210586212 1.44764051521562331 0.002009509145210586212 1.15853319526214094
0.002529822128153114136 1.73629467878113197 0.002529822128153114136 1.36252231995491968
0.003184857364431081805 2.07508892443794046 0.003184857364431081805 1.59546191644731605
0.004009497869020606231 2.47100801615106080 0.004009497869020606231 1.86022288150995485
0.005047658755856332391 2.93171796811053165 0.005047658755856332391 2.15988098101315673
0.006354625877790454069 3.46561846224382730 0.006354625877790454069 2.49777067174432865
0.007999999999995566213 4.08190892217799828 0.007999999999995566213 2.87754863944895778
0.010071403294347192059 4.79066992826400817 0.010071403294347192059 3.30326929566573435
0.012679145539706837553 5.60296368931218325 0.012679145539706837553 3.77949284489532689
0.015962098519764822413 6.53096470227376091 0.015962098519764822413 4.31145232242648113
0.020095091452077440408 7.58813640693325819 0.020095091452077440408 4.90524616044571005
0.025298221281346400247 8.78944947412259658 0.025298221281346400247 5.56788050107134946
0.031848573644282396344 10.15157647423120757 0.031848573644282396344 6.30686810142657706
0.040094978690177640601 11.69292345724828230 0.040094978690177640601 7.12917446237389019
0.050476587558421215363 13.43333669939721453 0.050476587558421215363 8.03962844686624933
0.063546258777947173257 15.39339910686533841 0.063546258777947173257 9.03942194974998969
0.079999999999998294697 17.59344204801253042 0.079999999999998294697 10.12546141885528428
0.100714032943528764008 20.05253811990797175 0.100714032943528764008 11.29070703325820979
0.126791455396883634421 22.78766278957993663 0.126791455396883634421 12.52602531842645384
0.159620985197506115583 25.81353145162618645 0.159620985197506115583 13.82329381542936986
0.200950914520774404082 29.14317794095353520 0.200950914520774404082 15.17582100849009841
0.252982212813464002465 32.78796921654591046 0.252982212813464002465 16.58150760603756524
0.318485736442795541734 36.75961378049623818 0.318485736442795541734 18.04729515192804712
0.400949786901833249431 41.07218610869880138 0.400949786901833249431 19.57889448104749519
0.504765875584169521062 45.73937447191622141 0.504765875584169521062 21.19294686069371636
0.635462587779429100010 50.78201222551941640 0.635462587779429100010 22.90852325388648225
0.800000000000011368684 56.22135338885349398 0.800000000000011368684 24.75225821099832757
1.007140329435344483500 62.08879434846235768 1.007140329435344483500 26.75170231645765639
1.267914553968893187630 68.41598083261804675 1.267914553968893187630 28.92610950446249163
1.596209851975103788391 75.24006053054419851 1.596209851975103788391 31.29003200400773466
2.009509145207672986544 82.59524523635366222 2.009509145207672986544 33.82712685401136099
2.529822128134725289783 90.50590715857954649 2.529822128134725289783 36.48967662101291154
3.184857364427998049905 98.97786561005970896 3.184857364427998049905 39.19588681305943112
4.009497869018190385759 107.99035957177055423 4.009497869018190385759 41.83772588256269387
5.009497869018204596614 117.17065461322270892 5.009497869018204596614 44.21797359522196302
6.009497869018190385759 124.95849305266727924 6.009497869018190385759 45.96620229786612555
7.009497869018190385759 131.70234497673635587 7.009497869018190385759 47.24971682227565850
8.009497869018204596614 137.62710628177555350 8.009497869018204596614 48.17600715326310024
9.009497869018190385759 142.89079913306542835 9.009497869018190385759 48.81688504852279920
10.009497869018190385759 147.61100645419639932 10.009497869018190385759 49.23259781849964156
11.009497869018204596614 151.87421874703767344 11.009497869018204596614 49.52694785179991754
12.009497869018190385759 155.74842193702710347 12.009497869018190385759 49.68100060813276286
13.009497869018190385759 159.28722560657882923 13.009497869018190385759 49.72175309427797174
14.009497869018204596614 162.53401301930415457 14.009497869018204596614 49.66918028202897517
15.009497869018190385759 165.52448383081068073 15.009497869018190385759 49.52575150019669081
16.009497869018190385759 168.28849859186613003 16.009497869018190385759 49.29676088455577343
17.009497869018190385759 170.84822020504751094 17.009497869018190385759 48.94785386391791349
18.009497869018204596614 173.22391843315108417 18.009497869018204596614 48.54412174893883503
19.009497869018190385759 175.43241985575804165 19.009497869018190385759 48.01366810250143402
20.009497869018190385759 177.48751199105896603 20.009497869018190385759 47.49163947274313813
21.009497869018204596614 179.40141169115642583 21.009497869018204596614 46.93431551719007189
22.009497869018190385759 181.18760098457619279 22.009497869018190385759 46.35014072463057033
23.009497869018190385759 182.85996096511328801 23.009497869018190385759 45.72473316019205924
24.009497869018204596614 184.42781648094970137 24.009497869018204596614 45.09744968358688766
25.009497869018190385759 185.89960424546799800 25.009497869018190385759 44.43623219884307929
26.009497869018190385759 187.28296854492029411 26.009497869018190385759 43.67587329149019126
27.009497869018204596614 188.58415697837239122 27.009497869018204596614 42.89860390286042247
28.009497869018190385759 189.80497082022145605 28.009497869018190385759 42.08982225344529127
29.009497869018190385759 190.94847958043735048 29.009497869018190385759 41.27023991985283402
30.009497869018190385759 192.02075437432466742 30.009497869018190385759 40.44892247284757758
31.009497869018190385759 193.02435572835267408 31.009497869018190385759 39.60531033917388299
32.009497869018190385759 193.96802209553524676 32.009497869018190385759 38.75826263116152859
33.009497869018190385759 194.85876414034154891 33.009497869018190385759 37.92540974635181783
34.009497869018190385759 195.70008955073785728 34.009497869018190385759 37.08563320982661082
35.009497869018190385759 196.49422726911291193 35.009497869018190385759 36.21216640863278968
36.009497869018190385759 197.24418801112568644 36.009497869018190385759 35.39942776002773428
37.009497869018190385759 197.95171506951140827 37.009497869018190385759 34.59228720622659381
38.009497869018190385759 198.61842387671808297 38.009497869018190385759 33.77809981316044485
39.009497869018190385759 199.24579785870929527 39.009497869018190385759 32.94739919189869681
40.009497869018190385759 199.83745194298285242 40.009497869018190385759 32.08388692487441318
41.009497869018190385759 200.39567749302946709 41.009497869018190385759 31.28581823911196480
42.009497869018190385759 200.92257035639840979 42.009497869018190385759 30.46724019268657813
43.009497869018190385759 201.42017723823599340 43.009497869018190385759 29.67572338361005535
44.009497869018190385759 201.89030950596622915 44.009497869018190385759 28.87807450187700553
46.009497869018190385759 202.75458864021058503 46.009497869018190385759 27.33942756262704776
48.009497869018190385759 203.52707958987983261 48.009497869018190385759 25.86866254611541294
50.009497869018218807469 204.21770909842612696 50.009497869018218807469 24.44480328492191745
52.009497869018190385759 204.83598276588878662 52.009497869018190385759 23.07515277278395516
54.009497869018190385759 205.38969752772754873 54.009497869018190385759 21.77078155727346243
56.009497869018190385759 205.88606844675840080 56.009497869018190385759 20.52046711761925479
58.009497869018190385759 206.33118023795148588 58.009497869018190385759 19.32956456169992165
60.009497869018190385759 206.73078763141211311 60.009497869018190385759 18.19657497218092601
62.009497869018190385759 207.08950794366700165 62.009497869018190385759 17.11716016700820120
64.009497869018190385759 207.41207847709270595 64.009497869018190385759 16.09108895653103133
66.009497869018218807469 207.70203884138919648 66.009497869018218807469 15.12776694158014124
68.009497869018190385759 207.96288522684352529 68.009497869018190385759 14.21711695146984233
70.009497869018190385759 208.19769453282293625 70.009497869018190385759 13.34367308843422428
72.009497869018190385759 208.40898720253809984 72.009497869018190385759 12.53084023190847951
74.009497869018218807469 208.59936869471866316 74.009497869018218807469 11.75630291792015569
76.009497869018190385759 208.77096488823696063 76.009497869018190385759 11.02386106281585043
78.009497869018190385759 208.92565286649750078 78.009497869018190385759 10.32995832379500989
80.009497869018218807469 209.06517807864531733 80.009497869018218807469 9.67867083541434781
82.009497869018190385759 209.19099955960899706 82.009497869018190385759 9.05995905526929413
84.009497869018190385759 209.30442627337700401 84.009497869018190385759 8.45658909540521009
86.009497869018218807469 209.40678953667713813 86.009497869018218807469 7.90409284539887746
88.009497869018190385759 209.49916810508003095 88.009497869018190385759 7.36558785982571607
91.009497869018190385759 209.62110380957025768 91.009497869018190385759 6.62054968728686255
94.009497869018190385759 209.72577301917161208 94.009497869018190385759 5.92756752680878307
97.009497869018190385759 209.81540034592092070 97.009497869018190385759 5.30143760647953943
99.504748934509137825444 209.88007170497979814 99.504748934509137825444 4.50563699203178469
nan nan nan nan

