Time Pressure difference Time.1 Pressure.1 difference.1
(hr) (psi) (hr) (psi)
0.000200000000006639311 0.65724869755656712 0.000200000000006639311 0.52681958511167482
0.000399999999999067768 1.22902768221881242 0.000399999999999067768 1.12299058661800566
0.000600000000019917934 1.75505892297931032 0.000600000000019917934 1.54162655799932868
0.000799999999998135536 2.24841205116677001 0.000799999999998135536 1.93014711446209009
0.001007140329448930061 2.73250306585477976 0.001007140329448930061 2.30648185909877235
0.001267914553963578328 3.31057518919054594 0.001267914553963578328 2.74797923355550733
0.001596209851982166583 3.99797776175107611 0.001596209851982166583 3.26008574869909173
0.002009509145210586212 4.81187551536460756 0.002009509145210586212 3.85089907157556688
0.002529822128153114136 5.77134569284996068 0.002529822128153114136 4.52894742970931130
0.003184857364431081805 6.89747867841343520 0.003184857364431081805 5.30322552509248712
0.004009497869020606231 8.21349143396690629 0.004009497869020606231 6.18327605684999071
0.005047658755856332391 9.74486535878993543 0.005047658755856332391 7.17932269745218221
0.006354625877790454069 11.51952052238793378 0.006354625877790454069 8.30244899340368292
0.007999999999995566213 13.56803529061982516 0.007999999999995566213 9.56480956211202837
0.010071403294347192059 15.92391694465219487 0.010071403294347192059 10.97988103911427160
0.012679145539706837553 18.62393564334754004 0.012679145539706837553 12.56282128725770519
0.015962098519764822413 21.70855872868461489 0.015962098519764822413 14.33102462102323216
0.020095091452077440408 25.22253791600350681 0.020095091452077440408 16.30476188542517590
0.025298221281346400247 29.21563487173144580 0.025298221281346400247 18.50732110215265536
0.031848573644282396344 33.74326828054316962 0.031848573644282396344 20.96367425262918616
0.040094978690177640601 38.86661881564218390 0.040094978690177640601 23.69697426929912609
0.050476587558421215363 44.65165438109496421 0.050476587558421215363 26.72327202056950313
0.063546258777947173257 51.16679139746788252 0.063546258777947173257 30.04652929776052872
0.079999999999998294697 58.47961018775997388 0.079999999999998294697 33.65646330774432471
0.100714032943528764008 66.65350699011663949 0.100714032943528764008 37.52967408237940106
0.126791455396883634421 75.74490730057556220 0.126791455396883634421 41.63580246688229636
0.159620985197506115583 85.80272426174337852 0.159620985197506115583 45.94784986537086269
0.200950914520774404082 96.87028160654976716 0.200950914520774404082 50.44357405638962177
0.252982212813464002465 108.98536246626527202 0.252982212813464002465 55.11599711302626758
0.318485736442795541734 122.18688524221285263 0.318485736442795541734 59.98819233598617728
0.400949786901833249431 136.52163269933686252 0.400949786901833249431 65.07914221869307880
0.504765875584169521062 152.03510387848209007 0.504765875584169521062 70.44416139610868299
0.635462587779429100010 168.79654767919132041 0.635462587779429100010 76.14664067489026422
0.800000000000011368684 186.87661126435807546 0.800000000000011368684 82.27511179993810231
1.007140329435344483500 206.37965445404390152 1.007140329435344483500 88.92115136174658119
1.267914553968893187630 227.41086586616702903 1.267914553968893187630 96.14875835286123618
1.596209851975103788391 250.09372232687928772 1.596209851975103788391 104.00630356261727627
2.009509145207672986544 274.54194191238684652 2.009509145207672986544 112.43946390910819844
2.529822128134725289783 300.83653647077147752 2.529822128134725289783 121.28962933181756512
3.184857364427998049905 328.99684907005757850 3.184857364427998049905 130.28491954763416061
4.009497869018190385759 358.95387125264574024 4.009497869018190385759 139.06624377865909992
5.009497869018204596614 389.46865477071213490 5.009497869018204596614 146.97805307707582756
6.009497869018190385759 415.35499099196454154 6.009497869018190385759 152.78906679290713555
7.009497869018190385759 437.77117485225039673 7.009497869018190385759 157.05539676136697835
8.009497869018204596614 457.46474764083137643 8.009497869018204596614 160.13433363619847682
9.009497869018190385759 474.96096613244282025 9.009497869018190385759 162.26457565424479412
10.009497869018190385759 490.65066934070910065 10.009497869018190385759 163.64638148121008498
11.009497869018204596614 504.82134682113922963 11.009497869018204596614 164.62478440879971231
12.009497869018190385759 517.69897995969574822 12.009497869018190385759 165.13684709182157917
13.009497869018190385759 529.46176398806494490 13.009497869018190385759 165.27230605985354828
14.009497869018204596614 540.25390243036315496 14.009497869018204596614 165.09755699378646909
15.009497869018190385759 550.19405893058194579 15.009497869018190385759 164.62080780347068298
16.009497869018190385759 559.38148827718885059 16.009497869018190385759 163.85965589796003883
17.009497869018190385759 567.88985870973544934 17.009497869018190385759 162.69990861809336025
18.009497869018204596614 575.78654577779798274 18.009497869018204596614 161.35792581337415186
19.009497869018190385759 583.12748008392816246 19.009497869018190385759 159.59472777732869986
20.009497869018190385759 589.95849056182987624 20.009497869018190385759 157.85953402207579188
21.009497869018204596614 596.32018533961854700 21.009497869018204596614 156.00702059235010211
22.009497869018190385759 602.25737792056315811 22.009497869018190385759 154.06525649313823578
23.009497869018190385759 607.81620827840470156 23.009497869018190385759 151.98643698317363260
24.009497869018204596614 613.02767168315676827 24.009497869018204596614 149.90138204685217715
25.009497869018190385759 617.91981129479495394 25.009497869018190385759 147.70353237925306189
26.009497869018190385759 622.51803629015762453 26.009497869018190385759 145.17614220833357308
27.009497869018204596614 626.84311333656171428 27.009497869018204596614 142.59254255035295955
28.009497869018190385759 630.90102976862340256 28.009497869018190385759 139.90419791286041118
29.009497869018190385759 634.70198846455230068 29.009497869018190385759 137.17995240965166204
30.009497869018190385759 638.26616946958631615 30.009497869018190385759 134.44993948721167953
31.009497869018190385759 641.60208382945404537 31.009497869018190385759 131.64582028232445055
32.009497869018190385759 644.73877766966643321 32.009497869018190385759 128.83028142188905463
33.009497869018190385759 647.69955404395216192 33.009497869018190385759 126.06192535407082289
34.009497869018190385759 650.49607230949482073 34.009497869018190385759 123.27055545801520964
35.009497869018190385759 653.13574134522036729 35.009497869018190385759 120.36720102024422374
36.009497869018190385759 655.62856860036140461 36.009497869018190385759 117.66570354037386892
37.009497869018190385759 657.98034868175614065 37.009497869018190385759 114.98281381224616382
38.009497869018190385759 660.19645119585163684 38.009497869018190385759 112.27650078740654749
39.009497869018190385759 662.28180696697734220 39.009497869018190385759 109.51529872236748986
40.009497869018190385759 664.24843181047822327 40.009497869018190385759 106.64503259535723600
41.009497869018190385759 666.10394208950651773 41.009497869018190385759 103.99229724549891785
42.009497869018190385759 667.85530428323977503 42.009497869018190385759 101.27138993625398200
43.009497869018190385759 669.50932152427742494 43.009497869018190385759 98.64043265537991090
44.009497869018190385759 671.07201469588767395 44.009497869018190385759 95.98909271046441916
46.009497869018190385759 673.94482984633384604 46.009497869018190385759 90.87471696873214455
48.009497869018190385759 676.51254624241744295 48.009497869018190385759 85.98597691384841823
50.009497869018218807469 678.80815982012063614 50.009497869018218807469 81.25314894706440327
52.009497869018190385759 680.86326665844717354 52.009497869018190385759 76.70050780812695734
54.009497869018190385759 682.70378333160147122 54.009497869018190385759 72.36485137347236218
56.009497869018190385759 684.35369230190121925 56.009497869018190385759 68.20887661631189758
58.009497869018190385759 685.83321881910637785 58.009497869018190385759 64.25038361353777816
60.009497869018190385759 687.16149128187691986 60.009497869018190385759 60.48439004837602795
62.009497869018190385759 688.35385739021705831 62.009497869018190385759 56.89647604808359915
64.009497869018190385759 689.42606367033624792 64.009497869018190385759 53.48587315128624198
66.009497869018218807469 690.38987558546261880 66.009497869018218807469 50.28384504525229914
68.009497869018190385759 691.25691427514186671 68.009497869018190385759 47.25689578235045474
70.009497869018190385759 692.03740717952416617 70.009497869018190385759 44.35361758972502599
72.009497869018190385759 692.73973210984490834 72.009497869018190385759 41.65180696803381721
74.009497869018218807469 693.37254946413520429 74.009497869018218807469 39.07728857224164898
76.009497869018190385759 693.94292554399885375 76.009497869018190385759 36.64269311020479591
78.009497869018190385759 694.45709966892138709 78.009497869018190385759 34.33619949881158107
80.009497869018218807469 694.92087361352525932 80.009497869018218807469 32.17135657968712792
82.009497869018190385759 695.33909712771435352 82.009497869018190385759 30.11479347948667140
84.009497869018190385759 695.71612113404171396 84.009497869018190385759 28.10922572557224441
86.009497869018218807469 696.05637085430714706 86.009497869018218807469 26.27275931710049406
88.009497869018190385759 696.36343201125202995 88.009497869018190385759 24.48279908336435184
91.009497869018190385759 696.76873942336021628 91.009497869018190385759 22.00633417182675089
94.009497869018190385759 697.11665397921831300 94.009497869018190385759 19.70290051164609579
97.009497869018190385759 697.41457016390609169 97.009497869018190385759 17.62167993139677691
99.504748934509137825444 697.62953411796092951 99.504748934509137825444 14.97648352280987361
nan nan nan nan

