Time Pressure difference Time.1 Pressure.1 difference.1
(hr) (psi) (hr) (psi)
0.000200000000006639311 0.28545759109978025 0.000200000000006639311 0.22880935370316385
0.000399999999999067768 0.53379380265859433 0.000399999999999067768 0.48773955562858295
0.000600000000019917934 0.76226076103974283 0.000600000000019917934 0.66956238218191177
0.000799999999998135536 0.97653489510421165 0.000799999999998135536 0.83830542047611967
0.001007140329448930061 1.18678628919540219 0.001007140329448930061 1.00175589219332273
0.001267914553963578328 1.43785574954250395 0.001267914553963578328 1.19350792982813347
0.001596209851982166583 1.73640983296392082 0.001596209851982166583 1.41592707305786814
0.002009509145210586212 2.08990356069861116 0.002009509145210586212 1.67253031710379485
0.002529822128153114136 2.50662259964881740 0.002529822128153114136 1.96702165908984883
0.003184857364431081805 2.99572696837871622 0.003184857364431081805 2.30330769627957599
0.004009497869020606231 3.56730030500681305 0.004009497869020606231 2.68553303316578029
0.005047658755856332391 4.23240974269478176 0.005047658755856332391 3.11813803596969796
0.006354625877790454069 5.00318158281679271 0.006354625877790454069 3.60593653315202323
0.007999999999995566213 5.89289668342598283 0.007999999999995566213 4.15420754286645266
0.010071403294347192059 6.91610799502902562 0.010071403294347192059 4.76880426486954612
0.012679145539706837553 8.08878560780984301 0.012679145539706837553 5.45631009298269021
0.015962098519764822413 9.42850538004310579 0.015962098519764822413 6.22427976124949733
0.020095091452077440408 10.95470396775575850 0.020095091452077440408 7.08151734430542668
0.025298221281346400247 12.68899395912064954 0.025298221281346400247 8.03813734309596306
0.031848573644282396344 14.65544490998167326 0.031848573644282396344 9.10498563938343963
0.040094978690177640601 16.88062893475984794 0.040094978690177640601 10.29211806187779743
0.050476587558421215363 19.39319734772133330 0.050476587558421215363 11.60650585639141674
0.063546258777947173257 22.22286490779855583 0.063546258777947173257 13.04986971618836478
0.079999999999998294697 25.39898323832795413 0.079999999999998294697 14.61774359764319087
0.100714032943528764008 28.94908672240234893 0.100714032943528764008 16.29996437899952966
0.126791455396883634421 32.89768219622455092 0.126791455396883634421 18.08334641040438839
0.159620985197506115583 37.26601371537583418 0.159620985197506115583 19.95616360678183554
0.200950914520774404082 42.07289773165827285 0.200950914520774404082 21.90875568127091810
0.252982212813464002465 47.33474429149232776 0.252982212813464002465 23.93809196646267878
0.318485736442795541734 53.06845651409668108 0.318485736442795541734 26.05419370524823464
0.400949786901833249431 59.29435318509334252 0.400949786901833249431 28.26530541277983133
0.504765875584169521062 66.03219554044243012 0.504765875584169521062 30.59545145381839859
0.635462587779429100010 73.31205990303858755 0.635462587779429100010 33.07216385244174717
0.800000000000011368684 81.16462989235891712 0.800000000000011368684 35.73389389615955736
1.007140329435344483500 89.63523127770974952 1.007140329435344483500 38.62041531601281008
1.267914553968893187630 98.76954979356831643 1.267914553968893187630 41.75952428461134502
1.596209851975103788391 108.62121414620817461 1.596209851975103788391 45.17222930156047056
2.009509145207672986544 119.23961460177818594 2.009509145207672986544 48.83493665543893769
2.529822128134725289783 130.65993639090709166 2.529822128134725289783 52.67875850216652367
3.184857364427998049905 142.89058063424113243 3.184857364427998049905 56.58561124420552346
4.009497869018190385759 155.90157543811943697 4.009497869018190385759 60.39953384454472740
5.009497869018204596614 169.15481827965251682 5.009497869018204596614 63.83580695084860679
6.009497869018190385759 180.39782447744221372 6.009497869018190385759 66.35965824691940895
7.009497869018190385759 190.13366704387993877 7.009497869018190385759 68.21261935610218075
8.009497869018204596614 198.68701963214073203 8.009497869018204596614 69.54986948182349238
9.009497869018190385759 206.28601283294656810 9.009497869018190385759 70.47508052779699028
10.009497869018190385759 213.10039664162152917 10.009497869018190385759 71.07522924501709838
11.009497869018204596614 219.25503410663887394 11.009497869018204596614 71.50017119449988456
12.009497869018190385759 224.84807392317296149 12.009497869018190385759 71.72257130047334783
13.009497869018190385759 229.95691020668073179 13.009497869018190385759 71.78140411497876983
14.009497869018204596614 234.64417372505178605 14.009497869018204596614 71.70550674518267442
15.009497869018190385759 238.96140271349429440 15.009497869018190385759 71.49844406718536050
16.009497869018190385759 242.95170571360952749 16.009497869018190385759 71.16785902347839965
17.009497869018190385759 246.64707846503341671 17.009497869018190385759 70.66415522607867672
18.009497869018204596614 250.07678365349275396 18.009497869018204596614 70.08130252487649159
19.009497869018190385759 253.26511317204509055 19.009497869018190385759 69.31550676769573727
20.009497869018190385759 256.23197153638795953 20.009497869018190385759 68.56187388670663552
21.009497869018204596614 258.99499575131738993 21.009497869018204596614 67.75728648608426852
22.009497869018190385759 261.57364930871915476 22.009497869018190385759 66.91393555316385289
23.009497869018190385759 263.98797181583256588 23.009497869018190385759 66.01105843548853613
24.009497869018204596614 266.25142520137109159 24.009497869018204596614 65.10547313475571229
25.009497869018190385759 268.37618922761225804 25.009497869018190385759 64.15089859692136542
26.009497869018190385759 270.37329965992017833 26.009497869018190385759 63.05319735743302090
27.009497869018204596614 272.25177591948124700 27.009497869018204596614 61.93108309919990973
28.009497869018190385759 274.01421843764364894 28.009497869018190385759 60.76347578842452890
29.009497869018190385759 275.66505854922291974 29.009497869018190385759 59.58027594063261034
30.009497869018190385759 277.21306089251095273 30.009497869018190385759 58.39457117558981025
31.009497869018190385759 278.66192200219927599 31.009497869018190385759 57.17668041922990341
32.009497869018190385759 280.02425725059663364 32.009497869018190385759 55.95382985484587124
33.009497869018190385759 281.31018766739452985 33.009497869018190385759 54.75147181691635012
34.009497869018190385759 282.52477716831873522 34.009497869018190385759 53.53911836629897891
35.009497869018190385759 283.67124359273344680 35.009497869018190385759 52.27812756175861608
36.009497869018190385759 284.75393339634342738 36.009497869018190385759 51.10480768173017907
37.009497869018190385759 285.77536330457627400 37.009497869018190385759 49.93956955828488020
38.009497869018190385759 286.73786545582544250 38.009497869018190385759 48.76415818097106580
39.009497869018190385759 287.64358141574223282 39.009497869018190385759 47.56490728407910495
40.009497869018190385759 288.49772991768651309 40.009497869018190385759 46.31828746196659097
41.009497869018190385759 289.30361891599329738 41.009497869018190385759 45.16614604942220268
42.009497869018190385759 290.06427410606818285 42.009497869018190385759 43.98439605282217713
43.009497869018190385759 290.78265023829851543 43.009497869018190385759 42.84171333549339522
44.009497869018190385759 291.46136231495125912 44.009497869018190385759 41.69017797806187531
46.009497869018190385759 292.70908923410689795 46.009497869018190385759 39.46889190379256718
48.009497869018190385759 293.82430504172793917 48.009497869018190385759 37.34560437995534699
50.009497869018218807469 294.82134059984053920 50.009497869018218807469 35.29003291133093967
52.009497869018190385759 295.71391878174085832 52.009497869018190385759 33.31272055225853279
54.009497869018190385759 296.51329572664889156 54.009497869018190385759 31.42964943127507382
56.009497869018190385759 297.22988754637651709 56.009497869018190385759 29.62461802191512206
58.009497869018190385759 297.87247851253562203 58.009497869018190385759 27.90535728977806329
60.009497869018190385759 298.44937651013719915 60.009497869018190385759 26.26970330490907912
62.009497869018190385759 298.96724738346290451 62.009497869018190385759 24.71139319884986918
64.009497869018190385759 299.43293019580283953 64.009497869018190385759 23.23009321189339005
66.009497869018218807469 299.85153494707589061 66.009497869018218807469 21.83938185228118911
68.009497869018190385759 300.22810895424589717 68.009497869018190385759 20.52471109191068521
70.009497869018190385759 300.56709421992042053 70.009497869018190385759 19.26375340231701117
72.009497869018190385759 300.87212941211487305 72.009497869018190385759 18.09029751789604390
74.009497869018218807469 301.14697593251639773 74.009497869018218807469 16.97212745192698335
76.009497869018190385759 301.39470283160966346 76.009497869018190385759 15.91472899913555672
78.009497869018190385759 301.61801998332384755 78.009497869018190385759 14.91296800266180966
80.009497869018218807469 301.81944722621329902 80.009497869018218807469 13.97272902295733310
82.009497869018190385759 302.00109091351998813 82.009497869018190385759 13.07951835443806665
84.009497869018190385759 302.16484074677663330 84.009497869018190385759 12.20845608843709762
86.009497869018218807469 302.31261869731559955 86.009497869018218807469 11.41083826272373258
88.009497869018190385759 302.44598212353105282 88.009497869018190385759 10.63341909341036384
91.009497869018190385759 302.62201606311197111 91.009497869018190385759 9.55783581615356859
94.009497869018190385759 302.77312302063506877 94.009497869018190385759 8.55740382391408794
97.009497869018190385759 302.90251458389991512 97.009497869018190385759 7.65348386850919304
99.504748934509137825444 302.99587816563985143 99.504748934509137825444 6.50461678427123768
nan nan nan nan

