Time Pressure difference Time.1 Pressure.1 difference.1
(hr) (psi) (hr) (psi)
0.000200000000006639311 0.37039863040264165 0.000200000000006639311 0.29689408821971502
0.000399999999999067768 0.69263000735212721 0.000399999999999067768 0.63287181364489298
0.000600000000019917934 0.98907981676376389 0.000600000000019917934 0.86879801785555388
0.000799999999998135536 1.26711357120839185 0.000799999999998135536 1.08775239925194067
0.001007140329448930061 1.53992757524866830 0.001007140329448930061 1.29983935279718965
0.001267914553963578328 1.86570550916246858 0.001267914553963578328 1.54864931382577309
0.001596209851982166583 2.25309763691903875 0.001596209851982166583 1.83725171430923395
0.002009509145210586212 2.71177730315039334 0.002009509145210586212 2.17021006999809485
0.002529822128153114136 3.25249566588578265 0.002529822128153114136 2.55233054301414564
0.003184857364431081805 3.88713840774994424 0.003184857364431081805 2.98868218151398635
0.004009497869020606231 4.62878966405762071 0.004009497869020606231 3.48464286254681666
0.005047658755856332391 5.49180971491127767 0.005047658755856332391 4.04597423203872975
0.006354625877790454069 6.49193317575252138 0.006354625877790454069 4.67892252594360158
0.007999999999995566213 7.64639276971371373 0.007999999999995566213 5.39033759220720210
0.010071403294347192059 8.97407183745229631 0.010071403294347192059 6.18781431441609353
0.012679145539706837553 10.49569254476789304 0.012679145539706837553 7.07989504747997866
0.015962098519764822413 12.23406063947056666 0.015962098519764822413 8.07638251947495789
0.020095091452077440408 14.21439636791722982 0.020095091452077440408 9.18870055407435871
0.025298221281346400247 16.46474338110289182 0.025298221281346400247 10.42997333299281060
0.031848573644282396344 19.01633339539085554 0.031848573644282396344 11.81427404915119439
0.040094978690177640601 21.90364534949326369 0.040094978690177640601 13.35465075346094821
0.050476587558421215363 25.16385607070182573 0.050476587558421215363 15.06014906243959395
0.063546258777947173257 28.83552227060690498 0.063546258777947173257 16.93300168051758448
0.079999999999998294697 32.95672947022065813 0.079999999999998294697 18.96741364377116312
0.100714032943528764008 37.56320521053183370 0.100714032943528764008 21.15019768201889860
0.126791455396883634421 42.68674860583283959 0.126791455396883634421 23.46424461057349475
0.159620985197506115583 48.35492511360961743 0.159620985197506115583 25.89433911904374597
0.200950914520774404082 54.59215022741999945 0.200950914520774404082 28.42794639618567842
0.252982212813464002465 61.41971698310711503 0.252982212813464002465 31.06113396623938172
0.318485736442795541734 68.85955820853520493 0.318485736442795541734 33.80690500290746314
0.400949786901833249431 76.93803876699917055 0.400949786901833249431 36.67595726731432393
0.504765875584169521062 85.68080006711066687 0.504765875584169521062 39.69946383763752351
0.635462587779429100010 95.12686797174764308 0.635462587779429100010 42.91314919390002558
0.800000000000011368684 105.31605634813401196 0.800000000000011368684 46.36690622623630276
1.007140329435344483500 116.30717814571119106 1.007140329435344483500 50.11234377589955358
1.267914553968893187630 128.15951339067888171 1.267914553968893187630 54.18552907173960165
1.596209851975103788391 140.94264859947011814 1.596209851975103788391 58.61372192300041206
2.009509145207672986544 154.72067065401461150 2.009509145207672986544 63.36630805047199289
2.529822128134725289783 169.53923453649409225 2.529822128134725289783 68.35390127598192578
3.184857364427998049905 185.40924121321040730 3.184857364427998049905 73.42328093150570112
4.009497869018190385759 202.29180032458427263 4.009497869018190385759 78.37207806170194146
5.009497869018204596614 219.48869103603689723 5.009497869018204596614 82.83085194597917678
6.009497869018190385759 234.07717712682745059 6.009497869018190385759 86.10570289600273952
7.009497869018190385759 246.71002650571739423 7.009497869018190385759 88.51003292060087801
8.009497869018204596614 257.80852303487529298 8.009497869018204596614 90.24519649836609858
9.009497869018190385759 267.66868006616482489 9.009497869018190385759 91.44571424582439079
10.009497869018190385759 276.51075856912842710 10.009497869018190385759 92.22444380085146065
11.009497869018204596614 284.49677596276069380 11.009497869018204596614 92.77583189139984654
12.009497869018190385759 291.75408616372686765 12.009497869018190385759 93.06440958988250145
13.009497869018190385759 298.38311275598573502 13.009497869018190385759 93.14074875407001741
14.009497869018204596614 304.46512297982326345 14.009497869018204596614 93.04226728887117304
15.009497869018190385759 310.06699083799747996 15.009497869018190385759 92.77359083839662901
16.009497869018190385759 315.24465229180555070 16.009497869018190385759 92.34463658656221696
17.009497869018190385759 320.03962376438477122 17.009497869018190385759 91.69105019578989868
18.009497869018204596614 324.48987537477597698 18.009497869018204596614 90.93476327618120081
19.009497869018190385759 328.62692733543411805 19.009497869018190385759 89.94109658637592020
20.009497869018190385759 332.47660696916682355 20.009497869018190385759 88.96321197006813009
21.009497869018204596614 336.06179936512404538 21.009497869018204596614 87.91921075755323045
22.009497869018190385759 339.40775959082583313 22.009497869018190385759 86.82491149825163745
23.009497869018190385759 342.54049025859251287 23.009497869018190385759 85.65337338458513727
24.009497869018204596614 345.47745904177901366 24.009497869018204596614 84.47832123826839279
25.009497869018190385759 348.23446992460907268 25.009497869018190385759 83.23970256966380532
26.009497869018190385759 350.82584248555491513 26.009497869018190385759 81.81536827842528226
27.009497869018204596614 353.26327997357083177 27.009497869018204596614 80.35935660676670977
28.009497869018190385759 355.55015660689372226 28.009497869018190385759 78.84431492546794118
29.009497869018190385759 357.69222231265024448 29.009497869018190385759 77.30904097662573804
30.009497869018190385759 359.70084974345326145 30.009497869018190385759 75.77051674491166011
31.009497869018190385759 361.58083537846346189 31.009497869018190385759 74.19022922690318467
32.009497869018190385759 363.34854843248149336 32.009497869018190385759 72.60350605555611025
33.009497869018190385759 365.01712155866795229 33.009497869018190385759 71.04337318682804892
34.009497869018190385759 366.59312549645261470 34.009497869018190385759 69.47027066066111445
35.009497869018190385759 368.08073558861997299 35.009497869018190385759 67.83405820208679415
36.009497869018190385759 369.48559162647489984 36.009497869018190385759 66.31160411385475584
37.009497869018190385759 370.81095921471847987 37.009497869018190385759 64.79963659757940775
38.009497869018190385759 372.05986444511978561 38.009497869018190385759 63.27446866408928372
39.009497869018190385759 373.23508612969487785 39.009497869018190385759 61.71836750031726382
40.009497869018190385759 374.34339589319324659 40.009497869018190385759 60.10080226772250001
41.009497869018190385759 375.38908600806928462 41.009497869018190385759 58.60582853242100043
42.009497869018190385759 376.37608249860551268 42.009497869018190385759 57.07243585390584428
43.009497869018190385759 377.30821933359703735 43.009497869018190385759 55.58973535239631047
44.009497869018190385759 378.18888963793671110 44.009497869018190385759 54.09554801055833906
46.009497869018190385759 379.80789139645082741 46.009497869018190385759 51.21329388492108592
48.009497869018190385759 381.25495190780299026 48.009497869018190385759 48.45819885399085081
50.009497869018218807469 382.54866633930527087 50.009497869018218807469 45.79096953372697243
52.009497869018190385759 383.70684095581981410 52.009497869018190385759 43.22528618000374934
54.009497869018190385759 384.74408128433469756 54.009497869018190385759 40.78188657911789505
56.009497869018190385759 385.67390286505445829 56.009497869018190385759 38.43974826258254751
58.009497869018190385759 386.50770382602183872 58.009497869018190385759 36.20890262966324258
60.009497869018190385759 387.25626415461704255 60.009497869018190385759 34.08654184929666542
62.009497869018190385759 387.92823319024944340 62.009497869018190385759 32.06453946777592279
64.009497869018190385759 388.53248503455392893 64.009497869018190385759 30.14246241152995864
66.009497869018218807469 389.07565022401070109 66.009497869018218807469 28.33792962295998663
68.009497869018190385759 389.56427796014349951 68.009497869018190385759 26.63206414852801274
70.009497869018190385759 390.00413201218941595 70.009497869018190385759 24.99589465861622273
72.009497869018190385759 390.39993377376856643 72.009497869018190385759 23.47326409639193656
74.009497869018218807469 390.75656389292367976 74.009497869018218807469 22.02237025469550247
76.009497869018190385759 391.07800464979595745 76.009497869018190385759 20.65033128668321183
78.009497869018190385759 391.36777227104465737 78.009497869018190385759 19.35048531077093514
80.009497869018218807469 391.62913640084263989 80.009497869018218807469 18.13046790295927124
82.009497869018190385759 391.86483016095769472 82.009497869018190385759 16.97147259649036855
84.009497869018190385759 392.07730555435404085 84.009497869018190385759 15.84121619280130844
86.009497869018218807469 392.26905645602897721 86.009497869018218807469 14.80625842870493969
88.009497869018190385759 392.44210363345979431 88.009497869018190385759 13.79750965291296261
91.009497869018190385759 392.67051840384283423 91.009497869018190385759 12.40187476632609354
94.009497869018190385759 392.86658889506793457 94.009497869018190385759 11.10375325444462113
97.009497869018190385759 393.03448233813355728 97.009497869018190385759 9.93086199523631841
99.504748934509137825444 393.15562727834236512 99.504748934509137825444 8.44013690056658206
nan nan nan nan

