Time Pressure difference Time.1 Pressure.1 difference.1
(hr) (psi) (hr) (psi)
0.000200000000006639311 0.46021333589501157 0.000200000000006639311 0.36888532389705198
0.000399999999999067768 0.86057976477397768 0.000399999999999067768 0.78633133236705688
0.000600000000019917934 1.22891308060309767 0.000600000000019917934 1.07946520639571641
0.000799999999998135536 1.57436479430215570 0.000799999999998135536 1.35151190959686618
0.001007140329448930061 1.91333106623941673 0.001007140329448930061 1.61502596277996679
0.001267914553963578328 2.31810402548193961 0.001267914553963578328 1.92416766247901538
0.001596209851982166583 2.79943146241256491 0.001596209851982166583 2.28275072022256298
0.002009509145210586212 3.36933232590678555 0.002009509145210586212 2.69644521855026431
0.002529822128153114136 4.04116472772650770 0.002529822128153114136 3.17122272355704871
0.003184857364431081805 4.82969640511788167 0.003184857364431081805 3.71338143229463347
0.004009497869020606231 5.75118415026708085 0.004009497869020606231 4.32960325590873296
0.005047658755856332391 6.82347034127134222 0.005047658755856332391 5.02704693116090340
0.006354625877790454069 8.06610494205341588 0.006354625877790454069 5.81347328881338399
0.007999999999995566213 9.50049928718189030 0.007999999999995566213 6.69739313618225651
0.010071403294347192059 11.15011557247362362 0.010071403294347192059 7.68824297336285323
0.012679145539706837553 13.04070069942025789 0.012679145539706837553 8.79663651575989824
0.015962098519764822413 15.20059038099632609 0.015962098519764822413 10.03475346874614083
0.020095091452077440408 17.66112029923550253 0.020095091452077440408 11.41678771850216378
0.025298221281346400247 20.45713416336280233 0.025298221281346400247 12.95904581411324585
0.031848573644282396344 23.62743679389728158 0.031848573644282396344 14.67901343324988694
0.040094978690177640601 27.21486762408843418 0.040094978690177640601 16.59290253390542702
0.050476587558421215363 31.26561816303365759 0.050476587558421215363 18.71195212457250179
0.063546258777947173257 35.82759440013376206 0.063546258777947173257 21.03893629853782699
0.079999999999998294697 40.94811687935311539 0.079999999999998294697 23.56665492205402046
0.100714032943528764008 46.67157639879988551 0.100714032943528764008 26.27872305980167766
0.126791455396883634421 53.03748276025471142 0.126791455396883634421 29.15388287140804735
0.159620985197506115583 60.08008552649615552 0.159620985197506115583 32.17322961971413520
0.200950914520774404082 67.82972048933199005 0.200950914520774404082 35.32118903736603954
0.252982212813464002465 76.31284384555226552 0.252982212813464002465 38.59287509715080944
0.318485736442795541734 85.55670672150709777 0.318485736442795541734 42.00444399797336814
0.400949786901833249431 95.59406696426023586 0.400949786901833249431 45.56918750694504894
0.504765875584169521062 106.45678354203035099 0.504765875584169521062 49.32583758774136129
0.635462587779429100010 118.19334535587441337 0.635462587779429100010 53.31878123527803837
0.800000000000011368684 130.85322038743717599 0.800000000000011368684 57.61000942771089228
1.007140329435344483500 144.50948262089301011 1.007140329435344483500 62.26364518020601935
1.267914553968893187630 159.23578637450893325 1.267914553968893187630 67.32450134665390351
1.596209851975103788391 175.11859158693562222 1.596209851975103788391 72.82644772763771357
2.009509145207672986544 192.23752500433019463 2.009509145207672986544 78.73144665669545361
2.529822128134725289783 210.64931208387704942 2.529822128134725289783 84.92843748763918654
3.184857364427998049905 230.36749707130093157 3.184857364427998049905 91.22704642053621171
4.009497869018190385759 251.34375942584625818 4.009497869018190385759 97.37583383230260381
5.009497869018204596614 272.71057288500071536 5.009497869018204596614 102.91577657197787232
6.009497869018190385759 290.83649263314464406 6.009497869018190385759 106.98471732003348222
7.009497869018190385759 306.53257052684057271 7.009497869018190385759 109.97205218142326544
8.009497869018204596614 320.32224384596349864 8.009497869018204596614 112.12796031093981242
9.009497869018190385759 332.57330361604311975 9.009497869018190385759 113.61958104603370145
10.009497869018190385759 343.55941995149231616 10.009497869018190385759 114.58713788038122061
11.009497869018204596614 353.48189644997142977 11.009497869018204596614 115.27222721844981379
12.009497869018190385759 362.49896795906664693 12.009497869018190385759 115.63077958442167414
13.009497869018190385759 370.73540889418524102 13.009497869018190385759 115.72562956097796416
14.009497869018204596614 378.29219227380298207 14.009497869018204596614 115.60326819162378342
15.009497869018190385759 385.25240778931640762 15.009497869018190385759 115.26944275221836733
16.009497869018190385759 391.68555482120950728 16.009497869018190385759 114.73647515736396940
17.009497869018190385759 397.64321674484654068 17.009497869018190385759 113.92440635228781787
18.009497869018204596614 403.17257071941145341 18.009497869018204596614 112.98473407059356077
19.009497869018190385759 408.31278001639458353 19.009497869018190385759 111.75012188645580125
20.009497869018190385759 413.09593459890839995 20.009497869018190385759 110.53511863198313847
21.009497869018204596614 417.55046876005070544 21.009497869018204596614 109.23796674951633179
22.009497869018190385759 421.70776144649596517 22.009497869018190385759 107.87832048936904528
23.009497869018190385759 425.60012041528125337 23.009497869018190385759 106.42270640453152453
24.009497869018204596614 429.24924892221042683 24.009497869018204596614 104.96272620017933264
25.009497869018190385759 432.67478312061388124 25.009497869018190385759 103.42376578674394239
26.009497869018190385759 435.89451481757862439 26.009497869018190385759 101.65405720308103810
27.009497869018204596614 438.92298507994416923 27.009497869018204596614 99.84499006968570711
28.009497869018190385759 441.76438631044499061 28.009497869018190385759 97.96257925889908336
29.009497869018190385759 444.42586268545449002 29.009497869018190385759 96.05503023599550261
30.009497869018190385759 446.92154451207255761 30.009497869018190385759 94.14344279771920299
31.009497869018190385759 449.25739132549693977 31.009497869018190385759 92.17996526124625234
32.009497869018190385759 451.45374156742531113 32.009497869018190385759 90.20849154647102353
33.009497869018190385759 453.52691231255550974 33.009497869018190385759 88.27005578288220988
34.009497869018190385759 455.48506758111869885 34.009497869018190385759 86.31550546371614985
35.009497869018190385759 457.33339515804101438 35.009497869018190385759 84.28254223981083726
36.009497869018190385759 459.07890237800734212 36.009497869018190385759 82.39092165274060164
37.009497869018190385759 460.72564669347542576 37.009497869018190385759 80.51233043421049729
38.009497869018190385759 462.27738796658678666 38.009497869018190385759 78.61733794541920872
39.009497869018190385759 463.73757881903816269 39.009497869018190385759 76.68391149945435359
40.009497869018190385759 465.11463286729457423 40.009497869018190385759 74.67411710331687402
41.009497869018190385759 466.41388317919893325 41.009497869018190385759 72.81664033821482462
42.009497869018190385759 467.64020776612443342 42.009497869018190385759 70.91142875833038772
43.009497869018190385759 468.79837026223236762 43.009497869018190385759 69.06920125551495460
44.009497869018190385759 469.89258656142141035 44.009497869018190385759 67.21270156950950536
46.009497869018190385759 471.90416581401132134 46.009497869018190385759 63.63155499611436028
48.009497869018190385759 473.70211129898081026 48.009497869018190385759 60.20840120768411197
50.009497869018218807469 475.30952716218189380 50.009497869018218807469 56.89441891314572786
52.009497869018190385759 476.74853735300166591 52.009497869018190385759 53.70660557327533269
54.009497869018190385759 478.03728896418277827 54.009497869018190385759 50.67072749773858931
56.009497869018190385759 479.19257480037782670 56.009497869018190385759 47.76066466459975146
58.009497869018190385759 480.22855682142932210 58.009497869018190385759 44.98888089888609443
60.009497869018190385759 481.15862895902608898 60.009497869018190385759 42.35188752328024719
62.009497869018190385759 481.99353785480241186 62.009497869018190385759 39.83958757180430155
64.009497869018190385759 482.74430941323333855 64.009497869018190385759 37.45144295868666262
66.009497869018218807469 483.41918195126146429 66.009497869018218807469 35.20934488867772671
68.009497869018190385759 484.02629272867449117 68.009497869018190385759 33.08983910183649613
70.009497869018190385759 484.57280312040825265 70.009497869018190385759 31.05692926568669776
72.009497869018190385759 485.06457936928768504 72.009497869018190385759 29.16508941299825608
74.009497869018218807469 485.50768558876416137 74.009497869018218807469 27.36238108713106598
76.009497869018190385759 485.90706968705853797 76.009497869018190385759 25.65764845958196005
78.009497869018190385759 486.26710050970024213 78.009497869018190385759 24.04261426770598931
80.009497869018218807469 486.59184052811457377 80.009497869018218807469 22.52676557115804101
82.009497869018190385759 486.88468559472380548 82.009497869018190385759 21.08673568849648916
84.009497869018190385759 487.14868227712037196 84.009497869018190385759 19.68241335233395617
86.009497869018218807469 487.38692916811129408 86.009497869018218807469 18.39649778453753015
88.009497869018190385759 487.60193703330253356 88.009497869018190385759 17.14314639205915114
91.009497869018190385759 487.88573809199272091 91.009497869018190385759 15.40909627921343628
94.009497869018190385759 488.12935199180435575 94.009497869018190385759 13.79620470148100431
97.009497869018190385759 488.33795643892153748 97.009497869018190385759 12.33890935874287109
99.504748934509137825444 488.48847674997057311 99.504748934509137825444 10.48671144976411718
nan nan nan nan

