Time Pressure difference Time.1 Pressure.1 difference.1
(hr) (psi) (hr) (psi)
0.000200000000006639311 0.24298707144834950 0.000200000000006639311 0.19476698644488824
0.000399999999999067768 0.45437570031182783 0.000399999999999067768 0.41517342662042789
0.000600000000019917934 0.64885123317773230 0.000600000000019917934 0.56994456434509078
0.000799999999998135536 0.83124555705212155 0.000799999999998135536 0.71358193108820922
0.001007140329448930061 1.01021564616876924 0.001007140329448930061 0.85271416189138938
0.001267914553963578328 1.22393086973252152 0.001267914553963578328 1.01593723782931367
0.001596209851982166583 1.47806593098636174 0.001596209851982166583 1.20526475243218534
0.002009509145210586212 1.77896668947272030 0.002009509145210586212 1.42369044065664507
0.002529822128153114136 2.13368606653033455 0.002529822128153114136 1.67436721712770065
0.003184857364431081805 2.55002124869310265 0.003184857364431081805 1.96062045366237081
0.004009497869020606231 3.03655562548140878 0.004009497869020606231 2.28597811847526122
0.005047658755856332391 3.60270975658653336 0.005047658755856332391 2.65421993793518185
0.006354625877790454069 4.25880578634892881 0.006354625877790454069 3.06944353675623471
0.007999999999995566213 5.01614864028211738 0.007999999999995566213 3.53614251819607794
0.010071403294347192059 5.88712607381739073 0.010071403294347192059 4.05929924009627197
0.012679145539706837553 6.88533213933081711 0.012679145539706837553 4.64451761573404553
0.015962098519764822413 8.02572775032937535 0.015962098519764822413 5.29822838213676750
0.020095091452077440408 9.32485776767502550 0.020095091452077440408 6.02792573942096066
0.025298221281346400247 10.80111924812952928 0.025298221281346400247 6.84221934814753840
0.031848573644282396344 12.47500066727708301 0.031848573644282396344 7.75034143449956225
0.040094978690177640601 14.36912072739313651 0.040094978690177640601 8.76085171608622204
0.050476587558421215363 16.50786798623108353 0.050476587558421215363 9.87968425336732814
0.063546258777947173257 18.91653622639437771 0.063546258777947173257 11.10830373402375493
0.079999999999998294697 21.62011012238160035 0.079999999999998294697 12.44290857457920296
0.100714032943528764008 24.64202747833761009 0.100714032943528764008 13.87484772748984163
0.126791455396883634421 28.00314899142041369 0.126791455396883634421 15.39289731031983166
0.159620985197506115583 31.72155801625893901 0.159620985197506115583 16.98707585065088210
0.200950914520774404082 35.81327148377740599 0.200950914520774404082 18.64916032381353972
0.252982212813464002465 40.29225794568493058 0.252982212813464002465 20.37657096657432731
0.318485736442795541734 45.17290566687741915 0.318485736442795541734 22.17783805641861861
0.400949786901833249431 50.47251039414042850 0.400949786901833249431 24.05997948551258858
0.504765875584169521062 56.20789327710831174 0.504765875584169521062 26.04344526190882902
0.635462587779429100010 62.40465586868407399 0.635462587779429100010 28.15167118171261151
0.800000000000011368684 69.08891666447136970 0.800000000000011368684 30.41738773112118466
1.007140329435344483500 76.29925784370902875 1.007140329435344483500 32.87445108606944189
1.267914553968893187630 84.07456799501302669 1.267914553968893187630 35.54652189104721316
1.596209851975103788391 92.46049691957719574 1.596209851975103788391 38.45148299084049626
2.009509145207672986544 101.49908657565995895 2.009509145207672986544 41.56925095792241365
2.529822128134725289783 111.22028731811360558 2.529822128134725289783 44.84118711525881906
3.184857364427998049905 121.63125034475645236 3.184857364427998049905 48.16677640055543463
4.009497869018190385759 132.70646299488703335 4.009497869018190385759 51.41326173596611682
5.009497869018204596614 143.98788190146029820 5.009497869018204596614 54.33828445328332890
6.009497869018190385759 153.55814815274959528 6.009497869018190385759 56.48663592237773656
7.009497869018190385759 161.84548731296123947 7.009497869018190385759 58.06391257385283211
8.009497869018204596614 169.12626793077345155 8.009497869018204596614 59.20220597355218928
9.009497869018190385759 175.59467921633742549 9.009497869018190385759 59.98976366878330424
10.009497869018190385759 181.39521567786809442 10.009497869018190385759 60.50062196709991724
11.009497869018204596614 186.63416317857797821 11.009497869018204596614 60.86234084604990358
12.009497869018190385759 191.39506780289599419 12.009497869018190385759 61.05165215576877813
13.009497869018190385759 195.74380893202823017 13.009497869018190385759 61.10173179543314603
14.009497869018204596614 199.73369909766603314 14.009497869018204596614 61.03712647333842511
15.009497869018190385759 203.40860865124270163 15.009497869018190385759 60.86087068157973334
16.009497869018190385759 206.80523242451153010 16.009497869018190385759 60.57947024193649810
17.009497869018190385759 209.95080581535771103 17.009497869018190385759 60.15070774122307284
18.009497869018204596614 212.87023779285115666 18.009497869018204596614 59.65457214922412987
19.009497869018190385759 215.58420609035056259 19.009497869018190385759 59.00271185835563870
20.009497869018190385759 218.10965381999855595 20.009497869018190385759 58.36120484502589534
21.009497869018204596614 220.46159394441406221 21.009497869018204596614 57.67632435034977334
22.009497869018190385759 222.65659416766581558 22.009497869018190385759 56.95844758061996060
23.009497869018190385759 224.71171259445259238 23.009497869018190385759 56.18990096094024267
24.009497869018204596614 226.63840828116707371 24.009497869018204596614 55.41904908299937205
25.009497869018190385759 228.44704887911382230 25.009497869018190385759 54.60649661055013127
26.009497869018190385759 230.14702824710278151 26.009497869018190385759 53.67211189693689022
27.009497869018204596614 231.74602389243651146 27.009497869018204596614 52.71694634541650260
28.009497869018190385759 233.24624935301861228 28.009497869018190385759 51.72305621990283697
29.009497869018190385759 234.65147666750925737 29.009497869018190385759 50.71589342263605005
30.009497869018190385759 235.96916646703979836 30.009497869018190385759 49.70659839092888888
31.009497869018190385759 237.20246531406721147 31.009497869018190385759 48.66990601539325212
32.009497869018190385759 238.36211165965423220 32.009497869018190385759 47.62899175449074818
33.009497869018190385759 239.45672072175776179 33.009497869018190385759 46.60552113196050072
34.009497869018190385759 240.49060300425179548 34.009497869018190385759 45.57354221911791115
35.009497869018190385759 241.46649759479018371 35.009497869018190385759 44.50016224159452349
36.009497869018190385759 242.38810428127769114 36.009497869018190385759 43.50140946566788358
37.009497869018190385759 243.25756534950519949 37.009497869018190385759 42.50953603863761288
38.009497869018190385759 244.07686596117824251 38.009497869018190385759 41.50900293941195685
39.009497869018190385759 244.84782905876599557 39.009497869018190385759 40.48817717596001842
40.009497869018190385759 245.57489692993311792 40.009497869018190385759 39.42703005908863645
41.009497869018190385759 246.26088536995527534 41.009497869018190385759 38.44630480792280025
42.009497869018190385759 246.90836990979948951 42.009497869018190385759 37.44037615228034355
43.009497869018190385759 247.51986569064916921 43.009497869018190385759 36.46770232704193404
44.009497869018190385759 248.09759865345844787 44.009497869018190385759 35.48749296181365054
46.009497869018190385759 249.15968815293487637 46.009497869018190385759 33.59669091322830070
48.009497869018190385759 250.10898160869035678 48.009497869018190385759 31.78930714293760218
50.009497869018218807469 250.95767773010814494 50.009497869018218807469 30.03956460013292329
52.009497869018190385759 251.71745769470132359 52.009497869018190385759 28.35643773838591741
54.009497869018190385759 252.39790294780601698 54.009497869018190385759 26.75353085735365966
56.009497869018190385759 253.00787988703760334 56.009497869018190385759 25.21705290158141111
58.009497869018190385759 253.55486585579248526 58.009497869018190385759 23.75358461983546832
60.009497869018190385759 254.04593268789724902 60.009497869018190385759 22.36128403271528953
62.009497869018190385759 254.48675448006963506 62.009497869018190385759 21.03482006438684238
64.009497869018190385759 254.88315277642729484 64.009497869018190385759 19.77390861207510397
66.009497869018218807469 255.23947730860857064 66.009497869018218807469 18.59010796694179390
68.009497869018190385759 255.56002445129712441 68.009497869018190385759 17.47103456360202500
70.009497869018190385759 255.84857532378589440 70.009497869018190385759 16.39768277416741071
72.009497869018190385759 256.10822723128802636 72.009497869018190385759 15.39881422864809402
74.009497869018218807469 256.34218195231272830 74.009497869018218807469 14.44700605054272557
76.009497869018190385759 256.55305192251654489 76.009497869018190385759 13.54692785536173183
78.009497869018190385759 256.74314383946352791 78.009497869018190385759 12.69420934860724870
80.009497869018218807469 256.91460263889865701 80.009497869018218807469 11.89385958295636314
82.009497869018190385759 257.06922128980119169 82.009497869018190385759 11.13354123341191304
84.009497869018190385759 257.20860834298792952 84.009497869018190385759 10.39207603625499310
86.009497869018218807469 257.33439981795891072 86.009497869018218807469 9.71312817973312725
88.009497869018190385759 257.44792136856665365 88.009497869018190385759 9.05137381365906535
91.009497869018190385759 257.59776489274651112 91.009497869018190385759 8.13581634106730611
94.009497869018190385759 257.72639008341866429 94.009497869018190385759 7.28422910864882134
97.009497869018190385759 257.83653070678309405 97.009497869018190385759 6.51479480514563036
99.504748934509137825444 257.91600360928856617 99.504748934509137825444 5.53685672612356594
nan nan nan nan

