Time Pressure difference Time.1 Pressure.1 difference.1
(hr) (psi) (hr) (psi)
0.000200000000006639311 0.68857940877483570 0.000200000000006639311 0.55193280685958301
0.000399999999999067768 1.28761480690085328 0.000399999999999067768 1.17652297686992324
0.000600000000019917934 1.83872168943489211 0.000600000000019917934 1.61511511214124570
0.000799999999998135536 2.35559271038552520 0.000799999999998135536 2.02215624597776200
0.001007140329448930061 2.86276009759573880 0.001007140329448930061 2.41643067653462484
0.001267914553963578328 3.46838862511594259 0.001267914553963578328 2.87897400634152190
0.001596209851982166583 4.18855932878370130 0.001596209851982166583 3.41549237866885802
0.002009509145210586212 5.04125517446567528 0.002009509145210586212 4.03446947223330010
0.002529822128153114136 6.04646280744556197 0.002529822128153114136 4.74484005082892768
0.003184857364431081805 7.22627797982085429 0.003184857364431081805 5.55602758931829488
0.004009497869020606231 8.60502439427253130 0.004009497869020606231 6.47802968244135702
0.005047658755856332391 10.20939813542716834 0.005047658755856332391 7.52155735993666141
0.006354625877790454069 12.06865020830684898 0.006354625877790454069 8.69822251533500257
0.007999999999995566213 14.21481663392267691 0.007999999999995566213 10.02075917047541864
0.010071403294347192059 16.68300196849684625 0.010071403294347192059 11.50328638525848923
0.012679145539706837553 19.51172918566813408 0.012679145539706837553 13.16168459014605041
0.015962098519764822413 22.74339468503080752 0.015962098519764822413 15.01417727774573763
0.020095091452077440408 26.42488347344011146 0.020095091452077440408 17.08200159394650441
0.025298221281346400247 30.60832933065932338 0.025298221281346400247 19.38955568859001843
0.031848573644282396344 35.35179272188262445 0.031848573644282396344 21.96300194475663758
0.040094978690177640601 40.71937077189631538 0.040094978690177640601 24.82659698340766496
0.050476587558421215363 46.78017604121072281 0.050476587558421215363 27.99715680968563802
0.063546258777947173257 53.60588632637260531 0.063546258777947173257 31.47883207148851881
0.079999999999998294697 61.26730347001547727 0.079999999999998294697 35.26084980016857173
0.100714032943528764008 69.83084577672175897 0.100714032943528764008 39.31869456300130139
0.126791455396883634421 79.35562851723435074 0.126791455396883634421 43.62055999973155451
0.159620985197506115583 89.89289649879681576 0.159620985197506115583 48.13816050513959510
0.200950914520774404082 101.48803867465861117 0.200950914520774404082 52.84819358238276976
0.252982212813464002465 114.18063927874611352 0.252982212813464002465 57.74334867032095531
0.318485736442795541734 128.01147193278441705 0.318485736442795541734 62.84779896217195727
0.400949786901833249431 143.02954951233490988 0.400949786901833249431 68.18143183716891542
0.504765875584169521062 159.28253997438429224 0.504765875584169521062 73.80219875079608016
0.635462587779429100010 176.84299327830530046 0.635462587779429100010 79.77651231723145031
0.800000000000011368684 195.78492430132430968 0.800000000000011368684 86.19712454463855522
1.007140329435344483500 216.21766764306082109 1.007140329435344483500 93.15997743301628020
1.267914553968893187630 238.25142620936355797 1.267914553968893187630 100.73212077434297385
1.596209851975103788391 262.01556290390215054 1.596209851975103788391 108.96423116888610139
2.009509145207672986544 287.62921668575273770 2.009509145207672986544 117.79939598104660092
2.529822128134725289783 315.17726119660272843 2.529822128134725289783 127.07144428937242253
3.184857364427998049905 344.67996157869384888 3.184857364427998049905 136.49553541590063332
4.009497869018190385759 376.06501977634178502 4.009497869018190385759 145.69546090793838289
5.009497869018204596614 408.03442750872272882 5.009497869018204596614 153.98442213265676060
6.009497869018190385759 435.15475221509842640 6.009497869018190385759 160.07244391756901791
7.009497869018190385759 458.63950416194450099 7.009497869018190385759 164.54214766630502709
8.009497869018204596614 479.27185955167607290 8.009497869018204596614 167.76785589639860063
9.009497869018190385759 497.60211388240037422 9.009497869018190385759 169.99964546827129652
10.009497869018190385759 514.03973726478943718 10.009497869018190385759 171.44732127639488795
11.009497869018204596614 528.88592373528263124 11.009497869018204596614 172.47236417404971576
12.009497869018190385759 542.37742709760493653 12.009497869018190385759 173.00883662480035241
13.009497869018190385759 554.70093705952990604 13.009497869018190385759 173.15075285296097718
14.009497869018204596614 566.00753125384449049 14.009497869018204596614 172.96767358776992296
15.009497869018190385759 576.42152996011179766 15.009497869018190385759 172.46819800596665573
16.009497869018190385759 586.04691939209715201 16.009497869018190385759 171.67076237614668344
17.009497869018190385759 594.96087951687331952 17.009497869018190385759 170.45573053315075640
18.009497869018204596614 603.23399764220562247 18.009497869018204596614 169.04977609049475973
19.009497869018190385759 610.92487055403069007 19.009497869018190385759 167.20252730061238822
20.009497869018190385759 618.08151182801873347 20.009497869018190385759 165.38461774134844973
21.009497869018204596614 624.74646536110458328 21.009497869018204596614 163.44379593838374376
22.009497869018190385759 630.96668089347133446 22.009497869018190385759 161.40946893190013611
23.009497869018190385759 636.79049786794735155 23.009497869018190385759 159.23155315292234491
24.009497869018204596614 642.25038908330725462 24.009497869018204596614 157.04710470798389110
25.009497869018190385759 647.37573450270360809 25.009497869018190385759 154.74448466428103188
26.009497869018190385759 652.19315454551474431 26.009497869018190385759 152.09661508902743776
27.009497869018204596614 656.72440581552916683 27.009497869018204596614 149.38985654904561784
28.009497869018190385759 660.97576106055987566 28.009497869018190385759 146.57335988963868090
29.009497869018190385759 664.95790952483287128 29.009497869018190385759 143.71925098850158520
30.009497869018190385759 668.69199322608130842 30.009497869018190385759 140.85909973819101992
31.009497869018190385759 672.18692892725641741 31.009497869018190385759 137.92130959663018075
32.009497869018190385759 675.47314736790258394 32.009497869018190385759 134.97155543034773473
33.009497869018190385759 678.57506244647117910 33.009497869018190385759 132.07123323641528145
34.009497869018190385759 681.50488931577365292 34.009497869018190385759 129.14680015675531877
35.009497869018190385759 684.27039003222773772 35.009497869018190385759 126.10504428921774434
36.009497869018190385759 686.88204909508203855 36.009497869018190385759 123.27476779812474206
37.009497869018190385759 689.34593733713654728 37.009497869018190385759 120.46398608083839576
38.009497869018190385759 691.66768033124708381 38.009497869018190385759 117.62866449019605852
39.009497869018190385759 693.85244395163203990 39.009497869018190385759 114.73583732671762903
40.009497869018190385759 695.91281680144379607 40.009497869018190385759 111.72874707289014395
41.009497869018190385759 697.85677831199348020 41.009497869018190385759 108.94955717775258108
42.009497869018190385759 699.69162705097903654 42.009497869018190385759 106.09894560058812374
43.009497869018190385759 701.42449045287116860 43.009497869018190385759 103.34257192390967361
44.009497869018190385759 703.06167641338231533 44.009497869018190385759 100.56484395195900561
46.009497869018190385759 706.07143720129681697 46.009497869018190385759 95.20666851914840834
48.009497869018190385759 708.76155533236305928 48.009497869018190385759 90.08488471164839950
50.009497869018218807469 711.16659964205427968 50.009497869018218807469 85.12644524221047959
52.009497869018190385759 713.31967237839432983 52.009497869018190385759 80.35678201508214613
54.009497869018190385759 715.24792554550185741 54.009497869018190385759 75.81444704275865831
56.009497869018190385759 716.97648483747911996 56.009497869018190385759 71.46035908213184484
58.009497869018190385759 718.52653963145780835 58.009497869018190385759 67.31316673070854506
60.009497869018190385759 719.91813016713581419 60.009497869018190385759 63.36765016720750765
62.009497869018190385759 721.16733576157275820 62.009497869018190385759 59.60870213088419689
64.009497869018190385759 722.29065356987564428 64.009497869018190385759 56.03551752820137466
66.009497869018218807469 723.30040990892223363 66.009497869018218807469 52.68085037050267516
68.009497869018190385759 724.20877989207122027 68.009497869018190385759 49.50960797536504288
70.009497869018190385759 725.02647849634456634 70.009497869018190385759 46.46793198754031096
72.009497869018190385759 725.76228289897949253 72.009497869018190385759 43.63732742731508552
74.009497869018218807469 726.42526633477734777 74.009497869018218807469 40.94008304867265480
76.009497869018190385759 727.02283195234622326 76.009497869018190385759 38.38943165889040898
78.009497869018190385759 727.56151649635933154 78.009497869018190385759 35.97298866983543775
80.009497869018218807469 728.04739830908522435 80.009497869018218807469 33.70494878952391105
82.009497869018190385759 728.48555832553984146 82.009497869018190385759 31.55035037204694248
84.009497869018190385759 728.88055487454164449 84.009497869018190385759 29.44917822308363498
86.009497869018218807469 729.23702412596378508 86.009497869018218807469 27.52516839471651267
88.009497869018190385759 729.55872273212730761 88.009497869018190385759 25.64988166678744363
91.009497869018190385759 729.98335094248227506 91.009497869018190385759 23.05536493213629257
94.009497869018190385759 730.34785040831241076 94.009497869018190385759 20.64212776061227572
97.009497869018190385759 730.65996810604156053 97.009497869018190385759 18.46169645355022482
99.504748934509137825444 730.88517928248245425 99.504748934509137825444 15.69040487718110732
nan nan nan nan

