Time Pressure difference Time.1 Pressure.1 difference.1
(hr) (psi) (hr) (psi)
0.000200000000006639311 0.25064568974614848 0.000200000000006639311 0.20090577398326581
0.000399999999999067768 0.46869699745632670 0.000399999999999067768 0.42825912201534111
0.000600000000019917934 0.66930213164465224 0.000600000000019917934 0.58790843313533714
0.000799999999998135536 0.85744527375003954 0.000799999999998135536 0.73607305212537344
0.001007140329448930061 1.04205625392767032 0.001007140329448930061 0.87959053948681998
0.001267914553963578328 1.26250748740317409 0.001267914553963578328 1.04795818228811721
0.001596209851982166583 1.52465253626100350 0.001596209851982166583 1.24325303975812829
0.002009509145210586212 1.83503727280853668 0.002009509145210586212 1.46856320526186890
0.002529822128153114136 2.20093691676481518 0.002529822128153114136 1.72714096895694036
0.003184857364431081805 2.63039441125936069 0.003184857364431081805 2.02241651380645715
0.004009497869020606231 3.13226368244500630 0.004009497869020606231 2.35802900473092869
0.005047658755856332391 3.71626221309785709 0.005047658755856332391 2.73787729987583228
0.006354625877790454069 4.39303748735133048 0.006354625877790454069 3.16618817545055720
0.007999999999995566213 5.17425074642281402 0.007999999999995566213 3.64759686690712925
0.010071403294347192059 6.07268019075719323 0.010071403294347192059 4.18724276915374816
0.012679145539706837553 7.10234833856473990 0.012679145539706837553 4.79090642310675197
0.015962098519764822413 8.27868765076955526 0.015962098519764822413 5.46522125378004553
0.020095091452077440408 9.61876445949286207 0.020095091452077440408 6.21791766817061831
0.025298221281346400247 11.14155567142300818 0.025298221281346400247 7.05787669149889396
0.031848573644282396344 12.86819553071561550 0.031848573644282396344 7.99462153701960432
0.040094978690177640601 14.82201565003303401 0.040094978690177640601 9.03698171286831098
0.050476587558421215363 17.02817328092604754 0.050476587558421215363 10.19107831292904720
0.063546258777947173257 19.51275943123775392 0.063546258777947173257 11.45842218982392957
0.079999999999998294697 22.30154625804405555 0.079999999999998294697 12.83509193939402060
0.100714032943528764008 25.41871029284108729 0.100714032943528764008 14.31216384497519556
0.126791455396883634421 28.88576973327034025 0.126791455396883634421 15.87806026279409721
0.159620985197506115583 32.72137789642756189 0.159620985197506115583 17.52248511814990550
0.200950914520774404082 36.94205654487067392 0.200950914520774404082 19.23695620794519812
0.252982212813464002465 41.56221449984691674 0.252982212813464002465 21.01881245835747691
0.318485736442795541734 46.59669352457270008 0.318485736442795541734 22.87685300948625411
0.400949786901833249431 52.06333450398440021 0.400949786901833249431 24.81831694780668229
0.504765875584169521062 57.97948876721774525 0.504765875584169521062 26.86429883749907788
0.635462587779429100010 64.37156479291193989 0.635462587779429100010 29.03897313872933950
0.800000000000011368684 71.26650429572977430 0.800000000000011368684 31.37610195760351317
1.007140329435344483500 78.70410551213538497 1.007140329435344483500 33.91060857015759211
1.267914553968893187630 86.72448274557217474 1.267914553968893187630 36.66689937185386583
1.596209851975103788391 95.37472461618278885 1.596209851975103788391 39.66342085015065067
2.009509145207672986544 104.69819818692718627 2.009509145207672986544 42.87945657550736200
2.529822128134725289783 114.72579780665013516 2.529822128134725289783 46.25451966043889485
3.184857364427998049905 125.46490006908977932 3.184857364427998049905 49.68492694613168226
4.009497869018190385759 136.88918818956830137 4.009497869018190385759 53.03373703423439167
5.009497869018204596614 148.52618190408512078 5.009497869018204596614 56.05095244464756377
6.009497869018190385759 158.39808978507122106 6.009497869018190385759 58.26701699729508732
7.009497869018190385759 166.94663447755311836 7.009497869018190385759 59.89400723950434724
8.009497869018204596614 174.45689528675771385 8.009497869018204596614 61.06817808160111127
9.009497869018190385759 181.12918199966040333 9.009497869018190385759 61.88055851221199077
10.009497869018190385759 187.11254339264328905 10.009497869018190385759 62.40751836147842369
11.009497869018204596614 192.51661531314636022 11.009497869018204596614 62.78063812199989258
12.009497869018190385759 197.42757710327379073 12.009497869018190385759 62.97591626383025698
13.009497869018190385759 201.91338457171963228 13.009497869018190385759 63.02757434485939569
14.009497869018204596614 206.02903058785034318 14.009497869018204596614 62.96093275186772331
15.009497869018190385759 209.81976823623887185 15.009497869018190385759 62.77912161996763274
16.009497869018190385759 213.32344891926689456 16.009497869018190385759 62.48885182549323503
17.009497869018190385759 216.56816645710250668 17.009497869018190385759 62.04657532045933266
18.009497869018204596614 219.57961491526191367 18.009497869018204596614 61.53480221696472086
19.009497869018190385759 222.37912376082005039 19.009497869018190385759 60.86239618626942161
20.009497869018190385759 224.98417012951139782 20.009497869018190385759 60.20066975418144040
21.009497869018204596614 227.41024017188846074 21.009497869018204596614 59.49420276826910481
22.009497869018190385759 229.67442378326560970 22.009497869018190385759 58.75369951009508895
23.009497869018190385759 231.79431671634077361 23.009497869018190385759 57.96092935798993295
24.009497869018204596614 233.78173920120386242 24.009497869018204596614 57.16578128905379685
25.009497869018190385759 235.64738566326926161 25.009497869018190385759 56.32761828022362494
26.009497869018190385759 237.40094604285673086 26.009497869018190385759 55.36378304555094587
27.009497869018204596614 239.05033983173964884 27.009497869018204596614 54.37851198954137999
28.009497869018190385759 240.59785033549195532 28.009497869018190385759 53.35329581422642065
29.009497869018190385759 242.04736848224453638 29.009497869018190385759 52.31438863079937107
30.009497869018190385759 243.40659005196081921 30.009497869018190385759 51.27328200783495760
31.009497869018190385759 244.67876078241889104 31.009497869018190385759 50.20391451444576347
32.009497869018190385759 245.87495758588974581 32.009497869018190385759 49.13019206766954738
33.009497869018190385759 247.00406722015128480 33.009497869018190385759 48.07446305875581771
34.009497869018190385759 248.07053605023108389 34.009497869018190385759 47.00995758992105067
35.009497869018190385759 249.07718949605859393 35.009497869018190385759 45.90274615178805107
36.009497869018190385759 250.02784395776495785 36.009497869018190385759 44.87251406200698511
37.009497869018190385759 250.92470924304259938 37.009497869018190385759 43.84937814873794082
38.009497869018190385759 251.76983308316374632 38.009497869018190385759 42.81730962231605986
39.009497869018190385759 252.56509587723715526 39.009497869018190385759 41.76430883480115597
40.009497869018190385759 253.31507992772472448 40.009497869018190385759 40.66971582026334886
41.009497869018190385759 254.02268977989652399 41.009497869018190385759 39.65807945802924905
42.009497869018190385759 254.69058214191349521 42.009497869018190385759 38.62044531467312680
43.009497869018190385759 255.32135142874983558 43.009497869018190385759 37.61711414823810173
44.009497869018190385759 255.91729373995718788 44.009497869018190385759 36.60600993195676978
46.009497869018190385759 257.01285883970359691 46.009497869018190385759 34.65561240333006054
48.009497869018190385759 257.99207271956595378 48.009497869018190385759 32.79126238239982172
50.009497869018218807469 258.86751857546971678 50.009497869018218807469 30.98637036116862831
52.009497869018190385759 259.65124575957730713 52.009497869018190385759 29.25019365564163110
54.009497869018190385759 260.35313771120388537 54.009497869018190385759 27.59676535429030508
56.009497869018190385759 260.98234028462331935 56.009497869018190385759 26.01185972655962075
58.009497869018190385759 261.54656649881172825 58.009497869018190385759 24.50226493736610323
60.009497869018190385759 262.05311108207166626 60.009497869018190385759 23.06608095065187669
62.009497869018190385759 262.50782697084548545 62.009497869018190385759 21.69780866240476414
64.009497869018190385759 262.91671919631471610 64.009497869018190385759 20.39715501532102593
66.009497869018218807469 263.28427458767640701 66.009497869018218807469 19.17604260200299748
68.009497869018190385759 263.61492493543539695 68.009497869018190385759 18.02169754411670155
70.009497869018190385759 263.91257053456428139 70.009497869018190385759 16.91451518252225483
72.009497869018190385759 264.18040631307644617 72.009497869018190385759 15.88416367425018549
74.009497869018218807469 264.42173496513635200 74.009497869018218807469 14.90235581144808386
76.009497869018190385759 264.63925126677924027 76.009497869018190385759 13.97390838948488145
78.009497869018190385759 264.83533461950389665 78.009497869018190385759 13.09431336819085878
80.009497869018218807469 265.01219756448000453 80.009497869018218807469 12.26873767869424370
82.009497869018190385759 265.17168958260293721 82.009497869018190385759 11.48445514048220417
84.009497869018190385759 265.31546992399898954 84.009497869018190385759 10.71961998009111028
86.009497869018218807469 265.44522617325276315 86.009497869018218807469 10.01927262092815596
88.009497869018190385759 265.56232576700284653 88.009497869018190385759 9.33666066738471123
91.009497869018190385759 265.71689215297635656 91.009497869018190385759 8.39224608247630322
94.009497869018190385759 265.84957143275272529 94.009497869018190385759 7.51381799172944298
97.009497869018190385759 265.96318353708284121 97.009497869018190385759 6.72013217722758416
99.504748934509137825444 266.04516131617157271 99.504748934509137825444 5.71137083496986708
nan nan nan nan

