Time Pressure difference Time.1 Pressure.1 difference.1
(hr) (psi) (hr) (psi)
0.000200000000006639311 0.61547441593220908 0.000200000000006639311 0.49333528944779714
0.000399999999999067768 1.15091151597609098 0.000399999999999067768 1.05161406628211540
0.000600000000019917934 1.64350856770520171 0.000600000000019917934 1.44364181914343903
0.000799999999998135536 2.10550450554176338 0.000799999999998135536 1.80746827244119457
0.001007140329448930061 2.55882702353350133 0.001007140329448930061 2.15988343585096887
0.001267914553963578328 3.10015727462335011 0.001267914553963578328 2.57331953650748746
0.001596209851982166583 3.74386900570757541 0.001596209851982166583 3.05287690873940409
0.002009509145210586212 4.50603596989651844 0.002009509145210586212 3.60613853736525547
0.002529822128153114136 5.40452287338915749 0.002529822128153114136 4.24109060154982043
0.003184857364431081805 6.45907960987020768 0.003184857364431081805 4.96615610612474434
0.004009497869020606231 7.69144748689273872 0.004009497869020606231 5.79027122272816985
0.005047658755856332391 9.12548832327362547 0.005047658755856332391 6.72300981413954446
0.006354625877790454069 10.78734760782937663 0.006354625877790454069 7.77475096416192368
0.007999999999995566213 12.70566016621602223 0.007999999999995566213 8.95687675096083957
0.010071403294347192059 14.91180357952599778 0.010071403294347192059 10.28200724425531298
0.012679145539706837553 17.44021092025341702 0.012679145539706837553 11.76433688340658001
0.015962098519764822413 20.32877745355635568 0.015962098519764822413 13.42015441205989035
0.020095091452077440408 23.61941050608802684 0.020095091452077440408 15.26844227406340693
0.025298221281346400247 27.35870892649427688 0.025298221281346400247 17.33100832023617244
0.031848573644282396344 31.59856902542389889 0.031848573644282396344 19.63123732979258662
0.040094978690177640601 36.39628287397000861 0.040094978690177640601 22.19081065048774093
0.050476587558421215363 41.81362550094063124 0.050476587558421215363 25.02475896841466252
0.063546258777947173257 47.91466482559493301 0.063546258777947173257 28.13679226612320505
0.079999999999998294697 54.76268581141928848 0.079999999999998294697 31.51728131784532039
0.100714032943528764008 62.41705527464311842 0.100714032943528764008 35.14431344155020298
0.126791455396883634421 70.93061234503051082 0.126791455396883634421 38.98945908974994978
0.159620985197506115583 80.34916127900544325 0.159620985197506115583 43.02743567901254096
0.200950914520774404082 90.71327218240465129 0.200950914520774404082 47.23741468839875779
0.252982212813464002465 102.05832671629077879 0.252982212813464002465 51.61286170330001966
0.318485736442795541734 114.42076965478406692 0.318485736442795541734 56.17538350107179923
0.400949786901833249431 127.84441028200612323 0.400949786901833249431 60.94275606072530138
0.504765875584169521062 142.37185575061246823 0.504765875584169521062 65.96677825652551519
0.635462587779429100010 158.06795354703930911 0.635462587779429100010 71.30681181843537786
0.800000000000011368684 174.99886054840311544 0.800000000000011368684 77.04576147367086492
1.007140329435344483500 193.26230353535467543 1.007140329435344483500 83.26938326672031110
1.267914553968893187630 212.95678540857167604 1.267914553968893187630 90.03760845755226683
1.596209851975103788391 234.19793489084884186 1.596209851975103788391 97.39573342092549524
2.009509145207672986544 257.09224221456565829 2.009509145207672986544 105.29288781319030477
2.529822128134725289783 281.71557016966312403 2.529822128134725289783 113.58054272174440769
3.184857364427998049905 308.08603239187596046 3.184857364427998049905 122.00409838994555400
4.009497869018190385759 336.13900655438442300 4.009497869018190385759 130.22728760628666578
5.009497869018204596614 364.71429112003124828 5.009497869018204596614 137.63622766963456456
6.009497869018190385759 388.95530936111930487 6.009497869018190385759 143.07789729335792117
7.009497869018190385759 409.94673577265820086 7.009497869018190385759 147.07306222144958952
8.009497869018204596614 428.38859842637174324 8.009497869018204596614 149.95630395593164508
9.009497869018190385759 444.77276913249943391 9.009497869018190385759 151.95114923554280040
10.009497869018190385759 459.46524544193522388 10.009497869018190385759 153.24512842096368104
11.009497869018204596614 472.73524426894823591 11.009497869018204596614 154.16134472179976456
12.009497869018190385759 484.79438377581681152 12.009497869018190385759 154.64086104784988152
13.009497869018190385759 495.80953322611156864 13.009497869018190385759 154.76771033571031921
14.009497869018204596614 505.91573066572135531 14.009497869018204596614 154.60406820180850218
15.009497869018190385759 515.22409755787555241 15.009497869018190385759 154.15762086680942389
16.009497869018190385759 523.82758012397766834 16.009497869018190385759 153.44484726037782707
17.009497869018190385759 531.79516430021840279 17.009497869018190385759 152.35881273135012748
18.009497869018204596614 539.18994329192094028 18.009497869018204596614 151.10212544388005540
19.009497869018190385759 546.06429279045823932 19.009497869018190385759 149.45099507961714380
20.009497869018190385759 552.46112887357799082 20.009497869018190385759 147.82608906304554353
21.009497869018204596614 558.41847864430383197 21.009497869018204596614 146.09132013097192271
22.009497869018190385759 563.97830729001884720 22.009497869018190385759 144.27297324145573043
23.009497869018190385759 569.18382215901453947 23.009497869018190385759 142.32628209017528320
24.009497869018204596614 574.06404848295619558 24.009497869018204596614 140.37375183200987294
25.009497869018190385759 578.64524701758341507 25.009497869018190385759 138.31559599921581594
26.009497869018190385759 582.95121194968157852 26.009497869018190385759 135.94884503407510579
27.009497869018204596614 587.00139003127173964 27.009497869018204596614 133.52945721876272955
28.009497869018190385759 590.80138804604143843 28.009497869018190385759 131.01198194382266138
29.009497869018190385759 594.36076038417820655 29.009497869018190385759 128.46088763785178344
30.009497869018190385759 597.69840446092609909 30.009497869018190385759 125.90439248590584498
31.009497869018190385759 600.82229036571754932 31.009497869018190385759 123.27850119658347694
32.009497869018190385759 603.75961807201815645 32.009497869018190385759 120.64191607727744326
33.009497869018190385759 606.53220950726029059 33.009497869018190385759 118.04951484427817832
34.009497869018190385759 609.15098296778967324 34.009497869018190385759 115.43556252636169290
35.009497869018190385759 611.62287642921057795 35.009497869018190385759 112.71674332827954856
36.009497869018190385759 613.95726127406726391 36.009497869018190385759 110.18695119670604754
37.009497869018190385759 616.15956380791567426 37.009497869018190385759 107.67458412078983088
38.009497869018190385759 618.23481234865778333 38.009497869018190385759 105.14028251702055172
39.009497869018190385759 620.18762432077119229 39.009497869018190385759 102.55458058323395676
40.009497869018190385759 622.02925182252408831 40.009497869018190385759 99.86674662531332558
41.009497869018190385759 623.76682712619037829 41.009497869018190385759 97.38261733582737634
42.009497869018190385759 625.40687392625420671 42.009497869018190385759 94.83464905047512161
43.009497869018190385759 626.95576295281910006 43.009497869018190385759 92.37091363067355587
44.009497869018190385759 628.41913240589485667 44.009497869018190385759 89.88809105513828968
46.009497869018190385759 631.10935337304988479 46.009497869018190385759 85.09878156817714512
48.009497869018190385759 633.51386745582306048 48.009497869018190385759 80.52076651678177655
50.009497869018218807469 635.66357339087562650 50.009497869018218807469 76.08875388686963959
52.009497869018190385759 637.58805903185100306 52.009497869018190385759 71.82547553218668668
54.009497869018190385759 639.31159371306739558 54.009497869018190385759 67.76539048109063401
56.009497869018190385759 640.85663558779731375 56.009497869018190385759 63.87356666188529175
58.009497869018190385759 642.24212440263772805 58.009497869018190385759 60.16667279064343177
60.009497869018190385759 643.48597276819816670 60.009497869018190385759 56.64004322326738361
62.009497869018190385759 644.60255289507608722 62.009497869018190385759 53.28017460434947594
64.009497869018190385759 645.60661047095049980 64.009497869018190385759 50.08634731539940788
66.009497869018218807469 646.50916315418328395 66.009497869018218807469 47.08783794491846919
68.009497869018190385759 647.32109345256924371 68.009497869018190385759 44.25327952499767292
70.009497869018190385759 648.05197875709666278 70.009497869018190385759 41.53453172597131982
72.009497869018190385759 648.70966439099890977 72.009497869018190385759 39.00444635565878571
74.009497869018218807469 649.30226030327912667 74.009497869018218807469 36.59356260366696034
76.009497869018190385759 649.83638366620232318 76.009497869018190385759 34.31370837862398560
78.009497869018190385759 650.31787723233730958 78.009497869018190385759 32.15381393744643646
80.009497869018218807469 650.75217401944530593 80.009497869018218807469 30.12656696657142064
82.009497869018190385759 651.14381553061389241 82.009497869018190385759 28.20071762273963500
84.009497869018190385759 651.49687614670858693 84.009497869018190385759 26.32262239555706174
86.009497869018218807469 651.81549982543162969 86.009497869018218807469 24.60288054694580140
88.009497869018190385759 652.10304438341813693 88.009497869018190385759 22.92668897213356871
91.009497869018190385759 652.48259073119743334 91.009497869018190385759 20.60762649141403458
94.009497869018190385759 652.80839207375947808 94.009497869018190385759 18.45059751302451900
97.009497869018190385759 653.08737290772558026 97.009497869018190385759 16.50165790185884518
99.504748934509137825444 653.28867389859908599 99.504748934509137825444 14.02458838364823102
nan nan nan nan

