Time Pressure difference Time.1 Pressure.1 difference.1
(hr) (psi) (hr) (psi)
0.000200000000006639311 0.43097133875796090 0.000200000000006639311 0.34544631693233757
0.000399999999999067768 0.80589844840407288 0.000399999999999067768 0.73636776813193372
0.000600000000019917934 1.15082783191122151 0.000600000000019917934 1.01087588919659366
0.000799999999998135536 1.47432951236465115 0.000799999999998135536 1.26563672018223916
0.001007140329448930061 1.79175783661452193 0.001007140329448930061 1.51240706650650436
0.001267914553963578328 2.17081148528490253 0.001267914553963578328 1.80190587454540152
0.001596209851982166583 2.62155533318211464 0.001596209851982166583 2.13770453225078150
0.002009509145210586212 3.15524464407912264 0.002009509145210586212 2.52511284460304664
0.002529822128153114136 3.78438875410394626 0.002529822128153114136 2.96972294384540625
0.003184857364431081805 4.52281705713762250 0.003184857364431081805 3.47743283901721334
0.004009497869020606231 5.38575338731516418 0.004009497869020606231 4.05449987202345863
0.005047658755856332391 6.38990641640992596 0.005047658755856332391 4.70762791284205662
0.006354625877790454069 7.55358390186242712 0.006354625877790454069 5.44408466834415261
0.007999999999995566213 8.89683670009922878 0.007999999999995566213 6.27184016837642488
0.010071403294347192059 10.44163621688528565 0.010071403294347192059 7.19973131696158308
0.012679145539706837553 12.21209339325437071 0.012679145539706837553 8.23769743306410973
0.015962098519764822413 14.23474348840654358 0.015962098519764822413 9.39714432247180120
0.020095091452077440408 16.53893111229467294 0.020095091452077440408 10.69136399054892550
0.025298221281346400247 19.15728600169678586 0.025298221281346400247 12.13562686677170888
0.031848573644282396344 22.12614731531379419 0.031848573644282396344 13.74630758726426727
0.040094978690177640601 25.48563246491791290 0.040094978690177640601 15.53858800073745705
0.050476587558421215363 29.27899794692562097 0.050476587558421215363 17.52299298806411443
0.063546258777947173257 33.55110579982269314 0.063546258777947173257 19.70212037639170077
0.079999999999998294697 38.34626981591463846 0.079999999999998294697 22.06922752912471708
0.100714032943528764008 43.70606019796842645 0.100714032943528764008 24.60897061122123830
0.126791455396883634421 49.66747629137316977 0.126791455396883634421 27.30144250741540191
0.159620985197506115583 56.26259143857961220 0.159620985197506115583 30.12893968926330501
0.200950914520774404082 63.51981389243041320 0.200950914520774404082 33.07687747977243475
0.252982212813464002465 71.46391882057012879 0.252982212813464002465 36.14068031034243234
0.318485736442795541734 80.12042581030694066 0.318485736442795541734 39.33547781353330919
0.400949786901833249431 89.52001127212874110 0.400949786901833249431 42.67371719636760474
0.504765875584169521062 99.69250985252162423 0.504765875584169521062 46.19166939003314098
0.635462587779429100010 110.68332946336802536 0.635462587779429100010 49.93090103575961791
0.800000000000011368684 122.53879488626871819 0.800000000000011368684 53.94946419932382042
1.007140329435344483500 135.32733697781054616 1.007140329435344483500 58.30740751368763597
1.267914553968893187630 149.11793005419215774 1.267914553968893187630 63.04669641993761786
1.596209851975103788391 163.99154038171428738 1.596209851975103788391 68.19904862845348248
2.009509145207672986544 180.02273521585533445 2.009509145207672986544 73.72884338955293515
2.529822128134725289783 197.26463567310122471 2.529822128134725289783 79.53207686058799197
3.184857364427998049905 215.72992539657380462 3.184857364427998049905 85.43047161015418567
4.009497869018190385759 235.37335413706327358 4.009497869018190385759 91.18856451164191412
5.009497869018204596614 255.38251832952417431 5.009497869018204596614 96.37649878676900528
6.009497869018190385759 272.35671549155301818 6.009497869018190385759 100.18689867034905205
7.009497869018190385759 287.05546317112600718 7.009497869018190385759 102.98441800348109609
8.009497869018204596614 299.96893939584174404 8.009497869018204596614 105.00333953475302451
9.009497869018190385759 311.44156571608272088 9.009497869018190385759 106.40018255294229732
10.009497869018190385759 321.72962322235053989 10.009497869018190385759 107.30626073820873501
11.009497869018204596614 331.02162466343776259 11.009497869018204596614 107.94781943754982478
12.009497869018190385759 339.46575063035135145 12.009497869018190385759 108.28358935364147442
13.009497869018190385759 347.17884736081799701 13.009497869018190385759 108.37241255407768392
14.009497869018204596614 354.25547203855381895 14.009497869018204596614 108.25782603723921227
15.009497869018190385759 360.77343482842184130 15.009497869018190385759 107.94521189655547744
16.009497869018190385759 366.79781911396167970 16.009497869018190385759 107.44610911105641549
17.009497869018190385759 372.37693065818456262 17.009497869018190385759 106.68563923156756346
18.009497869018204596614 377.55494897929759190 18.009497869018204596614 105.80567381194767052
19.009497869018190385759 382.36854891096561460 19.009497869018190385759 104.64950899805769780
20.009497869018190385759 386.84778141713206878 20.009497869018190385759 103.51170716066198452
21.009497869018204596614 391.01927407333039355 21.009497869018204596614 102.29697642655159484
22.009497869018190385759 394.91241200511501575 22.009497869018190385759 101.02372221319127732
23.009497869018190385759 398.55745013170815128 23.009497869018190385759 99.66059797943269416
24.009497869018204596614 401.97471268206993500 24.009497869018204596614 98.29338504978971969
25.009497869018190385759 405.18258812656580403 25.009497869018190385759 96.85221032071784464
26.009497869018190385759 408.19773777924535807 26.009497869018190385759 95.19494918110009962
27.009497869018204596614 411.03377876624125520 27.009497869018204596614 93.50083033757253759
28.009497869018190385759 413.69463710463759298 28.009497869018190385759 91.73802808057264713
29.009497869018190385759 416.18700302919268097 29.009497869018190385759 89.95168489573558190
30.009497869018190385759 418.52410900601046251 30.009497869018190385759 88.16155989680511595
31.009497869018190385759 420.71153590088141527 31.009497869018190385759 86.32284190122757650
32.009497869018190385759 422.76832984907150603 32.009497869018190385759 84.47663580524292115
33.009497869018190385759 424.70977113687121118 33.009497869018190385759 82.66136842602736579
34.009497869018190385759 426.54350504192507287 34.009497869018190385759 80.83101041155869382
35.009497869018190385759 428.27438971683415048 35.009497869018190385759 78.92722185543556179
36.009497869018190385759 429.90898724960140953 36.009497869018190385759 77.15579501217312952
37.009497869018190385759 431.45109728178715613 37.009497869018190385759 75.39656965019106849
38.009497869018190385759 432.90424077355100962 38.009497869018190385759 73.62198515614899463
39.009497869018190385759 434.27165096669386912 39.009497869018190385759 71.81140880206088184
40.009497869018190385759 435.56120687572672523 40.009497869018190385759 69.92931692428614099
41.009497869018190385759 436.77790270487764701 41.009497869018190385759 68.18986440144473704
42.009497869018190385759 437.92630651623460381 42.009497869018190385759 66.40571013828518687
43.009497869018190385759 439.01087926221163116 43.009497869018190385759 64.68053793822051034
44.009497869018190385759 440.03556895842638141 44.009497869018190385759 62.94200041078121899
46.009497869018190385759 441.91933228271255985 46.009497869018190385759 59.58840021572585499
48.009497869018190385759 443.60303614836482211 48.009497869018190385759 56.38275392973747557
50.009497869018218807469 445.10831666171043253 50.009497869018218807469 53.27934237100939896
52.009497869018190385759 446.45589201438434657 52.009497869018190385759 50.29408298011713896
54.009497869018190385759 447.66275623120895943 54.009497869018190385759 47.45110487307138669
56.009497869018190385759 448.74463510050509285 56.009497869018190385759 44.72594769650113022
58.009497869018190385759 449.71479072990132408 58.009497869018190385759 42.13028332286005195
60.009497869018190385759 450.58576599945104135 60.009497869018190385759 39.66084474570419616
62.009497869018190385759 451.36762470820377757 62.009497869018190385759 37.30817656119041459
64.009497869018190385759 452.07069217366324665 64.009497869018190385759 35.07177487356587164
66.009497869018218807469 452.70268324936586168 66.009497869018218807469 32.97213991844404291
68.009497869018190385759 453.27121815287370055 68.009497869018190385759 30.98730772168954672
70.009497869018190385759 453.78300322470909123 70.009497869018190385759 29.08356916105909917
72.009497869018190385759 454.24353196609541783 72.009497869018190385759 27.31193698433573402
74.009497869018218807469 454.65848317616496388 74.009497869018218807469 25.62377290912878891
76.009497869018190385759 455.03249037260093246 76.009497869018190385759 24.02735914747539425
78.009497869018190385759 455.36964480409142197 78.009497869018190385759 22.51494437475039234
80.009497869018218807469 455.67375081225867461 80.009497869018218807469 21.09541284197704769
82.009497869018190385759 455.94798847675338038 82.009497869018190385759 19.74688258877356617
84.009497869018190385759 456.19521078598711483 84.009497869018190385759 18.43179102132332403
86.009497869018218807469 456.41831944789845465 86.009497869018218807469 17.22758264542924422
88.009497869018190385759 456.61966569381877434 88.009497869018190385759 16.05386931419759833
91.009497869018190385759 456.88543400747880696 91.009497869018190385759 14.43000090292453308
94.009497869018190385759 457.11356865798319404 94.009497869018190385759 12.91959260244590268
97.009497869018190385759 457.30891835959522496 97.009497869018190385759 11.55489393806631959
99.504748934509137825444 457.44987459641714622 99.504748934509137825444 9.82038485235096736
nan nan nan nan

