Time Pressure difference Time.1 Pressure.1 difference.1
(hr) (psi) (hr) (psi)
0.000200000000006639311 0.66560355388143877 0.000200000000006639311 0.53351644424445033
0.000399999999999067768 1.24465091546735662 0.000399999999999067768 1.13726589068518358
0.000600000000019917934 1.77736899403413218 0.000600000000019917934 1.56122350577050639
0.000799999999998135536 2.27699356029177169 0.000799999999998135536 1.95468288286626946
0.001007140329448930061 2.76723827431903535 0.001007140329448930061 2.33580154374833304
0.001267914553963578328 3.35265877210398511 0.001267914553963578328 2.78291117296511104
0.001596209851982166583 4.04879951295977669 0.001596209851982166583 3.30152751669102962
0.002009509145210586212 4.87304342445822503 0.002009509145210586212 3.89985117841762952
0.002529822128153114136 5.84471025674212097 0.002529822128153114136 4.58651879534120788
0.003184857364431081805 6.98515849212208018 0.003184857364431081805 5.37063940888603586
0.004009497869020606231 8.31790022338173962 0.004009497869020606231 6.26187702367435506
0.005047658755856332391 9.86874076589319671 0.005047658755856332391 7.27058527411471012
0.006354625877790454069 11.66595510529964486 0.006354625877790454069 8.40798859925203601
0.007999999999995566213 13.74051031550058610 0.007999999999995566213 9.68639612434226471
0.010071403294347192059 16.12633961767743429 0.010071403294347192059 11.11945579808606333
0.012679145539706837553 18.86068058796636393 0.012679145539706837553 12.72251816802793201
0.015962098519764822413 21.98451498371026602 0.015962098519764822413 14.51319866281590087
0.020095091452077440408 25.54316339798659996 0.020095091452077440408 16.51202580769752970
0.025298221281346400247 29.58702006077887958 0.025298221281346400247 18.74258365853595265
0.031848573644282396344 34.17220813156701809 0.031848573644282396344 21.23016163719650962
0.040094978690177640601 39.36068600397661754 0.040094978690177640601 23.99820699306140170
0.050476587558421215363 45.21926015712583791 0.050476587558421215363 27.06297463100047196
0.063546258777947173257 51.81721671184247668 0.063546258777947173257 30.42847670408799132
0.079999999999998294697 59.22299506302810812 0.079999999999998294697 34.08429970572412770
0.100714032943528764008 67.50079733321133801 0.100714032943528764008 38.00674621054524494
0.126791455396883634421 76.70776629168456395 0.126791455396883634421 42.16507114230876851
0.159620985197506115583 86.89343685829096842 0.159620985197506115583 46.53193270264252845
0.200950914520774404082 98.10168349137880739 0.200950914520774404082 51.08480592998779457
0.252982212813464002465 110.37076961626016214 0.252982212813464002465 55.81662419497151717
0.318485736442795541734 123.74010835969860977 0.318485736442795541734 60.75075410296904721
0.400949786901833249431 138.25707718280301606 0.400949786901833249431 65.90641945028663429
0.504765875584169521062 153.96775350405602012 0.504765875584169521062 71.33963802402533361
0.635462587779429100010 170.94226650562168857 0.635462587779429100010 77.11460644618125571
0.800000000000011368684 189.25216140754906746 0.800000000000011368684 83.32098186519155547
1.007140329435344483500 209.00312463778175243 1.007140329435344483500 90.05150498075181531
1.267914553968893187630 230.30168195768609962 1.267914553968893187630 97.37098833192304426
1.596209851975103788391 253.27287981408542805 1.596209851975103788391 105.32841759095562395
2.009509145207672986544 278.03188185195108417 2.009509145207672986544 113.86877912829176296
2.529822128134725289783 304.66072973099312549 2.529822128134725289783 122.83144665383218808
3.184857364427998049905 333.17901240569392485 3.184857364427998049905 131.94108377917189046
4.009497869018190385759 363.51684419229803780 4.009497869018190385759 140.83403501313355832
5.009497869018204596614 394.41952750084828949 5.009497869018204596614 148.84641815856409153
6.009497869018190385759 420.63492731813357750 6.009497869018190385759 154.73130069281694432
7.009497869018190385759 443.33606266816883590 7.009497869018190385759 159.05186366935046749
8.009497869018204596614 463.27997748372325759 8.009497869018204596614 162.16993957225184886
9.009497869018190385759 480.99860553243149752 9.009497869018190385759 164.32726093798521561
10.009497869018190385759 496.88775412046385327 10.009497869018190385759 165.72663209325938283
11.009497869018204596614 511.23856733157754206 11.009497869018204596614 166.71747234619971323
12.009497869018190385759 524.27989919647166062 12.009497869018190385759 167.23604430061590165
13.009497869018190385759 536.19221014045558604 13.009497869018190385759 167.37322520468219977
14.009497869018204596614 547.12153678329138984 14.009497869018204596614 167.19625475218205679
15.009497869018190385759 557.18805120512320173 15.009497869018190385759 166.71344519080295754
16.009497869018190385759 566.49226990783097335 16.009497869018190385759 165.94261762547648686
17.009497869018190385759 575.10879759163890412 17.009497869018190385759 164.76812779544201248
18.009497869018204596614 583.10586627497332302 18.009497869018204596614 163.40908588727299389
19.009497869018190385759 590.54011754262216982 19.009497869018190385759 161.62347431687101107
20.009497869018190385759 597.45796289948032154 20.009497869018190385759 159.86622301388183587
21.009497869018204596614 603.90052667868144454 21.009497869018204596614 157.99016068462574935
22.009497869018190385759 609.91319204667206577 22.009497869018190385759 156.02371314347473685
23.009497869018190385759 615.54268550228266577 23.009497869018190385759 153.91846796177327406
24.009497869018204596614 620.82039632319686007 24.009497869018204596614 151.80690808982063800
25.009497869018190385759 625.77472415023737540 25.009497869018190385759 149.58111965526052245
26.009497869018190385759 630.43140115825292469 26.009497869018190385759 147.02160164318530633
27.009497869018204596614 634.81145799761975468 27.009497869018204596614 144.40515961667099987
28.009497869018190385759 638.92095811313981812 28.009497869018190385759 141.68264110666794409
29.009497869018190385759 642.77023408062711951 29.009497869018190385759 138.92376536401164344
30.009497869018190385759 646.37972247131824588 30.009497869018190385759 136.15904888747283508
31.009497869018190385759 649.75804252220132184 31.009497869018190385759 133.31928409947263958
32.009497869018190385759 652.93460958919604309 32.009497869018190385759 130.46795449081133711
33.009497869018190385759 655.93302295129058166 33.009497869018190385759 127.66440745602933760
34.009497869018190385759 658.76509017783587296 34.009497869018190385759 124.83755404434592151
35.009497869018190385759 661.43831432842227969 35.009497869018190385759 121.89729255863714741
36.009497869018190385759 663.96283006562021001 36.009497869018190385759 119.16145400910744456
37.009497869018190385759 666.34450565652423393 37.009497869018190385759 116.44445975053741904
38.009497869018190385759 668.58877896529054397 38.009497869018190385759 113.70374444148376369
39.009497869018190385759 670.70064349621861766 39.009497869018190385759 110.90744235019420216
40.009497869018190385759 672.69226780806900479 40.009497869018190385759 108.00068978936600672
41.009497869018190385759 674.57136508216979109 41.009497869018190385759 105.31423322743323467
42.009497869018190385759 676.34499035463693417 42.009497869018190385759 102.55873811340974555
43.009497869018190385759 678.02003323856911265 43.009497869018190385759 99.89433646032118475
44.009497869018190385759 679.60259115388623741 44.009497869018190385759 97.20929304152963368
46.009497869018190385759 682.51192514099068376 46.009497869018190385759 92.02990404884316433
48.009497869018190385759 685.11228199973629671 48.009497869018190385759 87.07901899326174089
50.009497869018218807469 687.43707710596959259 50.009497869018218807469 82.28602795910336454
52.009497869018190385759 689.51830818376640764 52.009497869018190385759 77.67551426331500863
54.009497869018190385759 691.38222125530819540 54.009497869018190385759 73.28474355194870782
56.009497869018190385759 693.05310364472200035 56.009497869018190385759 69.07593860719721590
58.009497869018190385759 694.55143770240010781 58.009497869018190385759 65.06712577811664744
60.009497869018190385759 695.89659498461253406 60.009497869018190385759 61.25325941339775682
62.009497869018190385759 697.10411828924520705 62.009497869018190385759 57.61973633683042806
64.009497869018190385759 698.18995431021346576 64.009497869018190385759 54.16577831846361590
66.009497869018218807469 699.16601807171844030 66.009497869018218807469 50.92304646531906798
68.009497869018190385759 700.04407843965623215 68.009497869018190385759 47.85761903382100968
70.009497869018190385759 700.83449286400946221 70.009497869018190385759 44.91743476247577149
72.009497869018190385759 701.54574565361428995 72.009497869018190385759 42.18127909050882351
74.009497869018218807469 702.18660729630641981 74.009497869018218807469 39.57403376595657818
76.009497869018190385759 702.76423391955813713 76.009497869018190385759 37.10849005652096366
78.009497869018190385759 703.28494415623811165 78.009497869018190385759 34.77267661108461283
80.009497869018218807469 703.75461353234129547 80.009497869018218807469 32.58031450231027293
82.009497869018190385759 704.17815344713449122 82.009497869018190385759 30.49760865083607442
84.009497869018190385759 704.55997013150852126 84.009497869018190385759 28.46654639157528166
86.009497869018218807469 704.90454506008222779 86.009497869018218807469 26.60673507113143543
88.009497869018190385759 705.21550953681867213 88.009497869018190385759 24.79402110561051131
91.009497869018190385759 705.62596916179279560 91.009497869018190385759 22.28607570790929771
94.009497869018190385759 705.97830636031005724 94.009497869018190385759 19.95336111137040902
97.009497869018190385759 706.28000961514226219 97.009497869018190385759 17.84568433730436254
99.504748934509137825444 706.49770616183343463 99.504748934509137825444 15.16686255064220390
nan nan nan nan

