Time Pressure difference Time.1 Pressure.1 difference.1
(hr) (psi) (hr) (psi)
0.000200000000006639311 0.31330711218268564 0.000200000000006639311 0.25113221747908226
0.000399999999999067768 0.58587124682040836 0.000399999999999067768 0.53532390251917639
0.000600000000019917934 0.83662766455581528 0.000600000000019917934 0.73488554141917151
0.000799999999998135536 1.07180659218754948 0.000799999999998135536 0.92009131515671672
0.001007140329448930061 1.30257031740958773 0.001007140329448930061 1.09948817435852497
0.001267914553963578328 1.57813435925396761 0.001267914553963578328 1.30994772786014635
0.001596209851982166583 1.90581567032625454 0.001596209851982166583 1.55406629969766041
0.002009509145210586212 2.29379659101067102 0.002009509145210586212 1.83570400657733601
0.002529822128153114136 2.75117114595601908 0.002529822128153114136 2.15892621119617578
0.003184857364431081805 3.28799301407420108 0.003184857364431081805 2.52802064225807133
0.004009497869020606231 3.91532960305625810 0.004009497869020606231 2.94753625591366086
0.005047658755856332391 4.64532776637232026 0.005047658755856332391 3.42234662484479069
0.006354625877790454069 5.49129685918916266 0.006354625877790454069 3.95773521931319694
0.007999999999995566213 6.46781343302851841 0.007999999999995566213 4.55949608363391157
0.010071403294347192059 7.59085023844649065 0.010071403294347192059 5.23405346144218431
0.012679145539706837553 8.87793542320592444 0.012679145539706837553 5.98863302888344062
0.015962098519764822413 10.34835956346194408 0.015962098519764822413 6.83152656722505824
0.020095091452077440408 12.02345557436607670 0.020095091452077440408 7.77239708521327266
0.025298221281346400247 13.92694458927876155 0.025298221281346400247 8.82234586437361834
0.031848573644282396344 16.08524441339451982 0.031848573644282396344 9.99327692127450717
0.040094978690177640601 18.52751956254129695 0.040094978690177640601 11.29622714108538872
0.050476587558421215363 21.28521660115755765 0.050476587558421215363 12.73884789116130989
0.063546258777947173257 24.39094928904719239 0.063546258777947173257 14.32302773727991330
0.079999999999998294697 27.87693282255506944 0.079999999999998294697 16.04386492424252708
0.100714032943528764008 31.77338786605136178 0.100714032943528764008 17.89020480621899623
0.126791455396883634421 36.10721216658792798 0.126791455396883634421 19.84757532849262063
0.159620985197506115583 40.90172237053444348 0.159620985197506115583 21.90310639768738099
0.200950914520774404082 46.17757068108834773 0.200950914520774404082 24.04619525993149765
0.252982212813464002465 51.95276812480864947 0.252982212813464002465 26.27351557294684525
0.318485736442795541734 58.24586690571587155 0.318485736442795541734 28.59606626185781764
0.400949786901833249431 65.07916812998050204 0.400949786901833249431 31.02289618475835553
0.504765875584169521062 72.47436095902217801 0.504765875584169521062 33.58037354687384379
0.635462587779429100010 80.46445599113991420 0.635462587779429100010 36.29871642341167615
0.800000000000011368684 89.08313036966222853 0.800000000000011368684 39.22012744700439413
1.007140329435344483500 98.38013189016923832 1.007140329435344483500 42.38826071269699014
1.267914553968893187630 108.40560343196521842 1.267914553968893187630 45.83362421481732696
1.596209851975103788391 119.21840577022848606 1.596209851975103788391 49.57927606268831511
2.009509145207672986544 130.87274773365899705 2.009509145207672986544 53.59932071938420250
2.529822128134725289783 143.40724725831267961 2.529822128134725289783 57.81814957554862389
3.184857364427998049905 156.83112508636222060 3.184857364427998049905 62.10615868266459927
4.009497869018190385759 171.11148523696036250 4.009497869018190385759 66.29217129279300025
5.009497869018204596614 185.65772738010642229 5.009497869018204596614 70.06369055580944405
6.009497869018190385759 197.99761223133901922 6.009497869018190385759 72.83377124661885205
7.009497869018190385759 208.68329309694138374 7.009497869018190385759 74.86750904938044471
8.009497869018204596614 218.07111910844713520 8.009497869018204596614 76.33522260200139442
9.009497869018190385759 226.41147749957548285 9.009497869018190385759 77.35069814026499557
10.009497869018190385759 233.89067924080413263 10.009497869018190385759 78.00939795184802961
11.009497869018204596614 240.64576914143290765 11.009497869018204596614 78.47579765249987815
12.009497869018190385759 246.78447137909228104 12.009497869018190385759 78.71989532978781767
13.009497869018190385759 252.39173071464955456 13.009497869018190385759 78.78446793107426060
14.009497869018204596614 257.53628823481295740 14.009497869018204596614 78.70116593983465236
15.009497869018190385759 262.27471029529857560 15.009497869018190385759 78.47390202495954270
16.009497869018190385759 266.65431114908363952 16.009497869018190385759 78.11106478186654556
17.009497869018190385759 270.71020807137813335 17.009497869018190385759 77.55821915057417471
18.009497869018204596614 274.47451864407736366 18.009497869018204596614 76.91850277120589396
19.009497869018190385759 277.97390470102510562 19.009497869018190385759 76.07799523283676990
20.009497869018190385759 281.23021266188925438 20.009497869018190385759 75.25083719272680582
21.009497869018204596614 284.26280021486053329 21.009497869018204596614 74.36775346033638812
22.009497869018190385759 287.09302972908199081 22.009497869018190385759 73.44212438761886119
23.009497869018190385759 289.74289589542598833 23.009497869018190385759 72.45116169748742152
24.009497869018204596614 292.22717400150480671 24.009497869018204596614 71.45722661131723896
25.009497869018190385759 294.55923207908659833 25.009497869018190385759 70.40952285027952939
26.009497869018190385759 296.75118255357091357 26.009497869018190385759 69.20472880693868944
27.009497869018204596614 298.81292478967458237 27.009497869018204596614 67.97313998692672499
28.009497869018190385759 300.74731291936501520 28.009497869018190385759 66.69161976778302403
29.009497869018190385759 302.55921060280570600 29.009497869018190385759 65.39298578849920318
30.009497869018190385759 304.25823756495105954 30.009497869018190385759 64.09160250979370232
31.009497869018190385759 305.84845097802360669 31.009497869018190385759 62.75489314305721678
32.009497869018190385759 307.34369698236218937 32.009497869018190385759 61.41274008458692890
33.009497869018190385759 308.75508402518909179 33.009497869018190385759 60.09307882344477036
34.009497869018190385759 310.08817006278883355 34.009497869018190385759 58.76244698740131156
35.009497869018190385759 311.34648687007324952 35.009497869018190385759 57.37843268973506383
36.009497869018190385759 312.53480494720616889 36.009497869018190385759 56.09064257750873139
37.009497869018190385759 313.65588655380321370 37.009497869018190385759 54.81172268592242602
38.009497869018190385759 314.71229135395469712 38.009497869018190385759 53.52163702789507482
39.009497869018190385759 315.70636984654640855 39.009497869018190385759 52.20538604350145562
40.009497869018190385759 316.64384990965589850 40.009497869018190385759 50.83714477532918607
41.009497869018190385759 317.52836222487064788 41.009497869018190385759 49.57259932253656132
42.009497869018190385759 318.36322767739181927 42.009497869018190385759 48.27555664334141028
43.009497869018190385759 319.15168928593732289 43.009497869018190385759 47.02139268529762717
44.009497869018190385759 319.89661717494641380 44.009497869018190385759 45.75751241494596400
46.009497869018190385759 321.26607354962942509 46.009497869018190385759 43.31951550416257390
48.009497869018190385759 322.49009089945747064 48.009497869018190385759 40.98907797799977715
50.009497869018218807469 323.58439821933717440 50.009497869018218807469 38.73296295146078450
52.009497869018190385759 324.56405719947167654 52.009497869018190385759 36.56274206955204420
54.009497869018190385759 325.44142213900494198 54.009497869018190385759 34.49595669286288313
56.009497869018190385759 326.22792535577917761 56.009497869018190385759 32.51482465819952949
58.009497869018190385759 326.93320812351470295 58.009497869018190385759 30.62783117170762992
60.009497869018190385759 327.56638885258962546 60.009497869018190385759 28.83260118831484320
62.009497869018190385759 328.13478371355688523 62.009497869018190385759 27.12226082800595250
64.009497869018190385759 328.64589899539339513 64.009497869018190385759 25.49644376915128063
66.009497869018218807469 329.10534323459552297 66.009497869018218807469 23.97005325250374597
68.009497869018190385759 329.51865616929433145 68.009497869018190385759 22.52712193014587427
70.009497869018190385759 329.89071316820530910 70.009497869018190385759 21.14314397815282121
72.009497869018190385759 330.22550789134555771 72.009497869018190385759 19.85520459281272920
74.009497869018218807469 330.52716870642041158 74.009497869018218807469 18.62794476431010793
76.009497869018190385759 330.79906408347403612 76.009497869018190385759 17.46738548685610226
78.009497869018190385759 331.04416827437989923 78.009497869018190385759 16.36789171023857392
80.009497869018218807469 331.26524695559999145 80.009497869018218807469 15.33592209836780462
82.009497869018190385759 331.46461197825368572 82.009497869018190385759 14.35556892560275521
84.009497869018190385759 331.64433740499873693 84.009497869018190385759 13.39952497511388785
86.009497869018218807469 331.80653271656592551 86.009497869018218807469 12.52409077616019317
88.009497869018190385759 331.95290720875357238 88.009497869018190385759 11.67082583423088771
91.009497869018190385759 332.14611519122041727 91.009497869018190385759 10.49030760309537946
94.009497869018190385759 332.31196429094092082 94.009497869018190385759 9.39227248966180461
97.009497869018190385759 332.45397942135355152 97.009497869018190385759 8.40016522153448086
99.504748934509137825444 332.55645164521445167 99.504748934509137825444 7.13921354371233452
nan nan nan nan

