Time Pressure difference Time.1 Pressure.1 difference.1
(hr) (psi) (hr) (psi)
0.000200000000006639311 0.70946654958701483 0.000200000000006639311 0.56867495469152174
0.000399999999999067768 1.32667289002221356 0.000399999999999067768 1.21221123703786837
0.000600000000019917934 1.89449686707194642 0.000600000000019917934 1.66410748156919053
0.000799999999998135536 2.42704648319802851 0.000799999999998135536 2.08349566698820965
0.001007140329448930061 2.94959811875637801 0.001007140329448930061 2.48972988815852636
0.001267914553963578328 3.57359758239954006 0.001267914553963578328 2.96630385486553161
0.001596209851982166583 4.31561370680545231 0.001596209851982166583 3.51909679864870162
0.002009509145210586212 5.19417494719971984 0.002009509145210586212 4.15684973933845647
0.002529822128153114136 6.22987421717596312 0.002529822128153114136 4.88876846490867312
0.003184857364431081805 7.44547751409246850 0.003184857364431081805 5.72456229880216583
0.004009497869020606231 8.86604636780961464 0.004009497869020606231 6.67453209950226789
0.005047658755856332391 10.51908665318532243 0.005047658755856332391 7.74971380159298118
0.006354625877790454069 12.43473666558612756 0.006354625877790454069 8.96207152995588174
0.007999999999995566213 14.64600419612457749 0.007999999999995566213 10.32472557605101215
0.010071403294347192059 17.18905865105994479 0.010071403294347192059 11.85222328268796943
0.012679145539706837553 20.10359154721519204 0.012679145539706837553 13.56092679207161389
0.015962098519764822413 23.43328532259494068 0.015962098519764822413 15.46961238222740853
0.020095091452077440408 27.22644717839785145 0.020095091452077440408 17.60016139962738890
0.025298221281346400247 31.53679230327790606 0.025298221281346400247 19.97771207954825812
0.031848573644282396344 36.42414234944225626 0.031848573644282396344 22.62922040617493735
0.040094978690177640601 41.95453874273239592 0.040094978690177640601 25.57967879281335755
0.050476587558421215363 48.19919048128789996 0.050476587558421215363 28.84641333576305655
0.063546258777947173257 55.23194961230908717 0.063546258777947173257 32.43370058730717886
0.079999999999998294697 63.12576565818581997 0.079999999999998294697 36.33044079511807922
0.100714032943528764008 71.94907163445853371 0.100714032943528764008 40.51137488341589687
0.126791455396883634421 81.76277599500687643 0.126791455396883634421 44.94373168829773135
0.159620985197506115583 92.61967799016578340 0.159620985197506115583 49.59836759831875952
0.200950914520774404082 104.56654338673115490 0.200950914520774404082 54.45127326637820886
0.252982212813464002465 117.64415715373337434 0.252982212813464002465 59.49491637518407572
0.318485736442795541734 131.89452972649883122 0.318485736442795541734 64.75420337962914630
0.400949786901833249431 147.36816072100026531 0.400949786901833249431 70.24962491615281124
0.504765875584169521062 164.11416403831910316 0.504765875584169521062 76.04089032058766406
0.635462587779429100010 182.20729034438127769 0.635462587779429100010 82.19642674545887928
0.800000000000011368684 201.72379965930178969 0.800000000000011368684 88.81179970777218102
1.007140329435344483500 222.77634310240543414 1.007140329435344483500 95.98586148052940814
1.267914553968893187630 245.47846643816123446 1.267914553968893187630 103.78769572199746563
1.596209851975103788391 269.96345662191737347 1.596209851975103788391 112.26951623973198480
2.009509145207672986544 296.35406653466333182 2.009509145207672986544 121.37268402900555486
2.529822128134725289783 324.73774434715693360 2.529822128134725289783 130.92598759440897993
3.184857364427998049905 355.13536991778465790 3.184857364427998049905 140.63594599474495794
4.009497869018190385759 387.47245212547250048 4.009497869018190385759 150.11493899412457154
5.009497869018204596614 420.41160933406314371 5.009497869018204596614 158.65533483637739209
6.009497869018190385759 448.35459303052101632 6.009497869018190385759 164.92802866734359668
7.009497869018190385759 472.55172370174062735 7.009497869018190385759 169.53331493626370730
8.009497869018204596614 493.80993415890583265 8.009497869018204596614 172.85687073653204493
9.009497869018190385759 512.69621238237209582 9.009497869018190385759 175.15635867762230760
10.009497869018190385759 529.63244921417640398 10.009497869018190385759 176.64794780651808992
11.009497869018204596614 544.92897501137815652 11.009497869018204596614 177.70408401754971806
12.009497869018190385759 558.82972518954454699 12.009497869018190385759 178.25682964678622966
13.009497869018190385759 571.52705244050650890 13.009497869018190385759 178.40305071503257750
14.009497869018204596614 583.17661713616530506 14.009497869018204596614 178.21441798375889221
15.009497869018190385759 593.90651064646510804 15.009497869018190385759 177.69979147429728528
16.009497869018190385759 603.82387346870279998 16.009497869018190385759 176.87816669493778932
17.009497869018190385759 613.00822672163178595 17.009497869018190385759 175.62627847652237278
18.009497869018204596614 621.53229888514408685 18.009497869018204596614 174.17767627524179375
19.009497869018190385759 629.45646420076570848 19.009497869018190385759 172.27439364946815203
20.009497869018190385759 636.83019267214467618 20.009497869018190385759 170.40134022086357390
21.009497869018204596614 643.69731870876205448 21.009497869018204596614 168.40164616907281925
22.009497869018190385759 650.10621620874348991 22.009497869018190385759 166.30561055774137458
23.009497869018190385759 656.10669092764248944 23.009497869018190385759 164.06163059942150539
24.009497869018204596614 661.73220068340754096 24.009497869018204596614 161.81091981540504321
25.009497869018190385759 667.01301664130937752 25.009497869018190385759 159.43845285429964065
26.009497869018190385759 671.97656671575282417 26.009497869018190385759 156.71026367615669983
27.009497869018204596614 676.64526746817421099 27.009497869018204596614 153.92139921484073284
28.009497869018190385759 681.02558192185097141 28.009497869018190385759 151.01946787415755580
29.009497869018190385759 685.12852356501991835 29.009497869018190385759 148.07878337440155292
30.009497869018190385759 688.97587573041130327 30.009497869018190385759 145.13187323884397983
31.009497869018190385759 692.57682565912455175 31.009497869018190385759 142.10496913950063913
32.009497869018190385759 695.96272716672672232 32.009497869018190385759 139.06573810265351199
33.009497869018190385759 699.15873471481711476 33.009497869018190385759 136.07743849131162506
34.009497869018190385759 702.17743398662628351 34.009497869018190385759 133.06429662258207713
35.009497869018190385759 705.02682249023257555 35.009497869018190385759 129.93027313520008192
36.009497869018190385759 707.71770275822916574 36.009497869018190385759 127.01414396995866696
37.009497869018190385759 710.25632977405678048 37.009497869018190385759 124.11810092656655513
38.009497869018190385759 712.64849975484412425 38.009497869018190385759 121.19677362538907062
39.009497869018190385759 714.89953527473505801 39.009497869018190385759 118.21619639628438847
40.009497869018190385759 717.02240679542080670 40.009497869018190385759 115.11789005791209206
41.009497869018190385759 719.02533579365160676 41.009497869018190385759 112.25439713258835184
42.009497869018190385759 720.91584222947176386 42.009497869018190385759 109.31731604347754683
43.009497869018190385759 722.70126973860033104 43.009497869018190385759 106.47733143626284402
44.009497869018190385759 724.38811755837878081 44.009497869018190385759 103.61534477962207745
46.009497869018190385759 727.48917543793868390 46.009497869018190385759 98.09463621942592226
48.009497869018190385759 730.26089472566025051 48.009497869018190385759 92.81748991018172035
50.009497869018218807469 732.73889285667678450 50.009497869018218807469 87.70864277230786854
52.009497869018190385759 734.95727619169247191 52.009497869018190385759 82.79429815305229567
54.009497869018190385759 736.94402035476889523 54.009497869018190385759 78.11417748894950819
56.009497869018190385759 738.72501319453101587 56.009497869018190385759 73.62801405934514776
58.009497869018190385759 740.32208683969213325 58.009497869018190385759 69.35502214215570405
60.009497869018190385759 741.75588942397507708 60.009497869018190385759 65.28982357976184403
62.009497869018190385759 743.04298800914318690 62.009497869018190385759 61.41685285275125494
64.009497869018190385759 744.20038016956846150 64.009497869018190385759 57.73528044614479171
66.009497869018218807469 745.24076612456178736 66.009497869018218807469 54.27885392066959014
68.009497869018190385759 746.17669030335753177 68.009497869018190385759 51.01141610404143734
70.009497869018190385759 747.01919270755831803 70.009497869018190385759 47.87747491941716049
72.009497869018190385759 747.77731675840254866 72.009497869018190385759 44.96100773350260482
74.009497869018218807469 748.46041091520532973 74.009497869018218807469 42.18194603295999201
76.009497869018190385759 749.07610289124454539 76.009497869018190385759 39.55392402468081769
78.009497869018190385759 749.63112771465125661 78.009497869018190385759 37.06418145051800650
80.009497869018218807469 750.13174810612531473 80.009497869018218807469 34.72734359608176646
82.009497869018190385759 750.58319912409001518 82.009497869018190385759 32.50738830042045890
84.009497869018190385759 750.99017736820826485 84.009497869018190385759 30.34247988809122631
86.009497869018218807469 751.35745964040154377 86.009497869018218807469 28.36010777979386077
88.009497869018190385759 751.68891654604419728 88.009497869018190385759 26.42793672240283342
91.009497869018190385759 752.12642528856360968 91.009497869018190385759 23.75471877234264895
94.009497869018190385759 752.50198136104177138 94.009497869018190385759 21.26827925992306234
97.009497869018190385759 752.82356673413175940 97.009497869018190385759 19.02170746831919246
99.504748934509137825444 753.05560939216331917 99.504748934509137825444 16.16635244676193039
nan nan nan nan

