Time Pressure difference Time.1 Pressure.1 difference.1
(hr) (psi) (hr) (psi)
0.000200000000006639311 0.55838289771225302 0.000200000000006639311 0.44757341870716438
0.000399999999999067768 1.04415275544437236 0.000399999999999067768 0.95406615515639881
0.000600000000019917934 1.49105641549725321 0.000600000000019917934 1.30972934270705665
0.000799999999998135536 1.91019752652092123 0.000799999999998135536 1.63980718834597083
0.001007140329448930061 2.32146976569442076 0.001007140329448930061 1.95953225741230463
0.001267914553963578328 2.81258612471484915 0.001267914553963578328 2.33461795054186094
0.001596209851982166583 3.39658703911479165 0.001596209851982166583 2.76969149412783011
0.002009509145210586212 4.08805525775679612 0.002009509145210586212 3.27163247394449641
0.002529822128153114136 4.90319835345939392 0.002529822128153114136 3.84768626973185057
0.003184857364431081805 5.85993421619446497 0.003184857364431081805 4.50549456686882888
0.004009497869020606231 6.97798742589137611 0.004009497869020606231 5.25316461609501317
0.005047658755856332391 8.27900637473467071 0.005047658755856332391 6.09938220694560407
0.006354625877790454069 9.78671129126601969 0.006354625877790454069 7.05356365753151859
0.007999999999995566213 11.52708082953082602 0.007999999999995566213 8.12603524238754815
0.010071403294347192059 13.52858198052019212 0.010071403294347192059 9.32824639128140376
0.012679145539706837553 15.82245379869144841 0.012679145539706837553 10.67307486481004375
0.015962098519764822413 18.44307637754773666 0.015962098519764822413 12.17529845980999070
0.020095091452077440408 21.42846971253687727 0.020095091452077440408 13.85213880520232266
0.025298221281346400247 24.82091013467014662 0.025298221281346400247 15.72338085161698018
0.031848573644282396344 28.66748004342756317 0.031848573644282396344 17.81024020191589941
0.040094978690177640601 33.02015708701804186 0.040094978690177640601 20.13238703811218144
0.050476587558421215363 37.93498603139636316 0.050476587558421215363 22.70345779713638024
0.063546258777947173257 43.47009184403521687 0.063546258777947173257 25.52681832288553565
0.079999999999998294697 49.68288916375369979 0.079999999999998294697 28.59373259831668079
0.100714032943528764008 56.62723793016264295 0.100714032943528764008 31.88432056575029705
0.126791455396883634421 64.35107590578560632 0.126791455396883634421 35.37278980766906500
0.159620985197506115583 72.89595853593027641 0.159620985197506115583 39.03620295765617243
0.200950914520774404082 82.29869263607299956 0.200950914520774404082 42.85566355214456991
0.252982212813464002465 92.59137785799231324 0.252982212813464002465 46.82524331000748674
0.318485736442795541734 103.80707835196473354 0.318485736442795541734 50.96454476002215728
0.400949786901833249431 115.98553964498745472 0.400949786901833249431 55.28969497816933654
0.504765875584169521062 129.16541664252395094 0.504765875584169521062 59.84768796576183547
0.635462587779429100010 143.40554156643156603 0.635462587779429100010 64.69237904794702843
0.800000000000011368684 158.76593456993134623 0.800000000000011368684 69.89898269443892787
1.007140329435344483500 175.33525727981270848 1.007140329435344483500 75.54530020351775477
1.267914553968893187630 193.20287544985802697 1.267914553968893187630 81.68570360062999214
1.596209851975103788391 212.47369206160720978 1.596209851975103788391 88.36128756061340539
2.009509145207672986544 233.24431929421001541 2.009509145207672986544 95.52590048210251439
2.529822128134725289783 255.58358289148168296 2.529822128134725289783 103.04479102131109869
3.184857364427998049905 279.50791626502774534 3.184857364427998049905 110.68697614110445215
4.009497869018190385759 304.95869146676045602 4.009497869018190385759 118.14738083737773877
5.009497869018204596614 330.88332746410071650 5.009497869018204596614 124.86906627946483184
6.009497869018190385759 352.87574446563087349 6.009497869018190385759 129.80596564397404791
7.009497869018190385759 371.92000236388224721 7.009497869018190385759 133.43053835022914200
8.009497869018204596614 388.65119449994358547 8.009497869018204596614 136.04633005956694092
9.009497869018190385759 403.51556656591009187 9.009497869018190385759 137.85613312998339097
10.009497869018190385759 416.84516611361090099 10.009497869018190385759 139.03008257196026420
11.009497869018204596614 428.88423744762047818 11.009497869018204596614 139.86131048289976775
12.009497869018190385759 439.82476899118216807 12.009497869018190385759 140.29634678775519774
13.009497869018190385759 449.81815118477544502 13.009497869018190385759 140.41142951271456241
14.009497869018204596614 458.98689592071104926 14.009497869018204596614 140.26296685277196730
15.009497869018190385759 467.43181701517664806 15.009497869018190385759 139.85793205337236600
16.009497869018190385759 475.23723898125570031 16.009497869018190385759 139.21127545568214146
17.009497869018190385759 482.46574860721165123 17.009497869018190385759 138.22598168613438929
18.009497869018204596614 489.17458656122238381 18.009497869018204596614 137.08586493890473434
19.009497869018190385759 495.41127015604911321 19.009497869018190385759 135.58789372607799351
20.009497869018190385759 501.21473456630042165 20.009497869018190385759 134.11371428570421926
21.009497869018204596614 506.61947949404031988 21.009497869018204596614 132.53986283375505195
22.009497869018190385759 511.66357742827506172 22.009497869018190385759 130.89018613082296838
23.009497869018190385759 516.38622779584807176 23.009497869018190385759 129.12407040307758166
24.009497869018204596614 520.81376344268187495 24.009497869018204596614 127.35265720505873333
25.009497869018190385759 524.97000917206094073 25.009497869018190385759 125.48541627983151159
26.009497869018190385759 528.87655201769757696 26.009497869018190385759 123.33820556258848455
27.009497869018204596614 532.55103484737549024 27.009497869018204596614 121.14324059892274477
28.009497869018190385759 535.99854435851261769 28.009497869018190385759 118.85928678613774423
29.009497869018190385759 539.22774867433361123 29.009497869018190385759 116.54483244972526279
30.009497869018190385759 542.25579228242384033 30.009497869018190385759 114.22547825078787298
31.009497869018190385759 545.08990596527769412 31.009497869018190385759 111.84316511273750905
32.009497869018190385759 547.75476662189873878 32.009497869018190385759 109.45115010630826191
33.009497869018190385759 550.27017197378143010 33.009497869018190385759 107.09922048089491398
34.009497869018190385759 552.64602753412589209 34.009497869018190385759 104.72773885310189712
35.009497869018190385759 554.88862771066385449 35.009497869018190385759 102.26111781592783245
36.009497869018190385759 557.00647459479864665 36.009497869018190385759 99.96598966036000888
37.009497869018190385759 559.00449114700040809 37.009497869018190385759 97.68667020913285626
38.009497869018190385759 560.88723925749252430 38.009497869018190385759 95.38745088082633572
39.009497869018190385759 562.65890803762272299 39.009497869018190385759 93.04159912641814856
40.009497869018190385759 564.32970583898679706 40.009497869018190385759 90.60308913292001876
41.009497869018190385759 565.90610334299174156 41.009497869018190385759 88.34938812594293722
42.009497869018190385759 567.39401910504057014 42.009497869018190385759 86.03776983991069471
43.009497869018190385759 568.79923290515944245 43.009497869018190385759 83.80257096357487967
44.009497869018190385759 570.12685994290461622 44.009497869018190385759 81.55005545952592172
46.009497869018190385759 572.56753552622842562 46.009497869018190385759 77.20500318741862600
48.009497869018190385759 574.74900644747742717 48.009497869018190385759 73.05164564079070999
50.009497869018218807469 576.69930527090753003 50.009497869018218807469 69.03074730460345165
52.009497869018190385759 578.44527527550280865 52.009497869018190385759 65.16293142173496733
54.009497869018190385759 580.00893456773758317 54.009497869018190385759 61.47946059483563630
56.009497869018190385759 581.41065807852191938 56.009497869018190385759 57.94864305750226663
58.009497869018190385759 582.66762870013064912 58.009497869018190385759 54.58560133268781556
60.009497869018190385759 583.79609746617074961 60.009497869018190385759 51.38610256228556494
62.009497869018190385759 584.80910341838364275 62.009497869018190385759 48.33789596457950211
64.009497869018190385759 585.72002443178996600 64.009497869018190385759 45.44032867302072987
66.009497869018218807469 586.53885616476804898 66.009497869018218807469 42.71996157446223208
68.009497869018190385759 587.27547166172007564 68.009497869018190385759 40.14833730661553801
70.009497869018190385759 587.93855991311261278 70.009497869018190385759 37.68178104550791119
72.009497869018190385759 588.53523850857595789 72.009497869018190385759 35.38638685207957479
74.009497869018218807469 589.07286511677591534 74.009497869018218807469 33.19913711328156580
76.009497869018190385759 589.55744309988040186 76.009497869018190385759 31.13076257879687603
78.009497869018190385759 589.99427323567260828 78.009497869018190385759 29.17122033691407523
80.009497869018218807469 590.38828457420265750 80.009497869018218807469 27.33202116197995579
82.009497869018190385759 590.74359734790982657 82.009497869018190385759 25.58481395185201990
84.009497869018190385759 591.06390799735322616 84.009497869018190385759 23.88093117786964115
86.009497869018218807469 591.35297608596852115 86.009497869018218807469 22.32071289440105488
88.009497869018190385759 591.61384795871197184 88.009497869018190385759 20.80000515345149381
91.009497869018190385759 591.95818751857507323 91.009497869018190385759 18.69605932818332050
94.009497869018190385759 592.25376746963252117 94.009497869018190385759 16.73911674824170603
97.009497869018190385759 592.50686999094568819 97.009497869018190385759 14.97096112815700764
99.504748934509137825444 592.68949826547100201 99.504748934509137825444 12.72366502679398259
nan nan nan nan

