Time Pressure difference Time.1 Pressure.1 difference.1
(hr) (psi) (hr) (psi)
0.000200000000006639311 0.16152722228085126 0.000200000000006639311 0.12947260990032686
0.000399999999999067768 0.30204917613852167 0.000399999999999067768 0.27598921196544202
0.000600000000019917934 0.43132804039322037 0.000600000000019917934 0.37887432357610618
0.000799999999998135536 0.55257584308335883 0.000799999999998135536 0.47435818914746281
0.001007140329448930061 0.67154736364227641 0.001007140329448930061 0.56684723655817282
0.001267914553963578328 0.81361593632649010 0.001267914553963578328 0.67535082858567541
0.001596209851982166583 0.98255385670153572 0.001596209851982166583 0.80120751451079375
0.002009509145210586212 1.18257957580994577 0.002009509145210586212 0.94640739894653769
0.002529822128153114136 1.41838156858177000 0.002529822128153114136 1.11304640221669482
0.003184857364431081805 1.69514306503381018 0.003184857364431081805 1.30333508667527243
0.004009497869020606231 2.01856992868678198 0.004009497869020606231 1.51961869193770949
0.005047658755856332391 2.39492453732972965 0.005047658755856332391 1.76440981547553633
0.006354625877790454069 2.83106860295974627 0.006354625877790454069 2.04043237973480363
0.007999999999995566213 3.33451714769470264 0.007999999999995566213 2.35067353645126120
0.010071403294347192059 3.91350501182130239 0.010071403294347192059 2.69844534012130399
0.012679145539706837553 4.57706892929727616 0.012679145539706837553 3.08747302822435143
0.015962098519764822413 5.33515426382926972 0.015962098519764822413 3.52203147465825195
0.020095091452077440408 6.19875931833984506 0.020095091452077440408 4.00710249726550938
0.025298221281346400247 7.18011365491704989 0.025298221281346400247 4.54840942341039867
0.031848573644282396344 8.29283711979450722 0.031848573644282396344 5.15208943496818961
0.040094978690177640601 9.55196564113240143 0.040094978690177640601 5.82383265940402328
0.050476587558421215363 10.97371166993012004 0.050476587558421215363 6.56758380166538736
0.063546258777947173257 12.57488941124210768 0.063546258777947173257 7.38431652233097768
0.079999999999998294697 14.37210758851728087 0.079999999999998294697 8.27150369427614685
0.100714032943528764008 16.38094663316425681 0.100714032943528764008 9.22339447787290290
0.126791455396883634421 18.61527382810755427 0.126791455396883634421 10.23252772491174944
0.159620985197506115583 21.08711019991998370 0.159620985197506115583 11.29226818725216042
0.200950914520774404082 23.80710310669443786 0.200950914520774404082 12.39714955623134962
0.252982212813464002465 26.78453823323468441 0.252982212813464002465 13.54545691760815096
0.318485736442795541734 30.02898027139129056 0.318485736442795541734 14.74286082833558531
0.400949786901833249431 33.55192668034550252 0.400949786901833249431 15.99402647747541906
0.504765875584169521062 37.36455942776254346 0.504765875584169521062 17.31254813972162765
0.635462587779429100010 41.48389731098768607 0.635462587779429100010 18.71400491162557600
0.800000000000011368684 45.92730276835919057 0.800000000000011368684 20.22015459490004119
1.007140329435344483500 50.72042355226502508 1.007140329435344483500 21.85350330076822445
1.267914553968893187630 55.88911110270206706 1.267914553968893187630 23.62977959519471227
1.596209851975103788391 61.46371141931779647 1.596209851975103788391 25.56087121454153177
2.009509145207672986544 67.47217216490862768 2.009509145207672986544 27.63342757088252455
2.529822128134725289783 73.93440303095231059 2.529822128134725289783 29.80846822561617770
3.184857364427998049905 80.85515782230230286 3.184857364427998049905 32.01917514306263968
4.009497869018190385759 88.21747683327735956 4.009497869018190385759 34.17729719983994130
5.009497869018204596614 95.71687278263263465 5.009497869018204596614 36.12172490877287601
6.009497869018190385759 102.07876897260145199 6.009497869018190385759 37.54985539825683105
7.009497869018190385759 107.58783110775645753 7.009497869018190385759 38.59836022101391251
8.009497869018204596614 112.42777696257719811 8.009497869018204596614 39.35504809703182616
9.009497869018190385759 116.72769506644780790 9.009497869018190385759 39.87858215231440084
10.009497869018190385759 120.58363907525901482 10.009497869018190385759 40.21817849961942670
11.009497869018204596614 124.06626320180541256 11.009497869018204596614 40.45863345639993014
12.009497869018190385759 127.23110524433199942 12.009497869018190385759 40.58447937002394212
13.009497869018190385759 130.12195894621933689 13.009497869018190385759 40.61777013335383657
14.009497869018204596614 132.77426415661466308 14.009497869018204596614 40.57482332898141664
15.009497869018190385759 135.21718397446505833 15.009497869018190385759 40.45765615509025537
16.009497869018190385759 137.47511152574978155 16.009497869018190385759 40.27059339865119370
17.009497869018190385759 139.56615171679939635 17.009497869018190385759 39.98557076207379168
18.009497869018204596614 141.50686294539102050 18.009497869018204596614 39.65576142871059773
19.009497869018190385759 143.31099086808404763 19.009497869018190385759 39.22243309781807596
20.009497869018190385759 144.98979852790733958 20.009497869018190385759 38.79598717491693094
21.009497869018204596614 146.55326588855032810 21.009497869018204596614 38.34070845066231215
22.009497869018190385759 148.01240643810447750 22.009497869018190385759 37.86349523983905385
23.009497869018190385759 149.37855966164184451 23.009497869018190385759 37.35259891959351819
24.009497869018204596614 150.65934304077580919 24.009497869018204596614 36.84017016405689304
25.009497869018190385759 151.86164853855132151 25.009497869018190385759 36.30002066947744765
26.009497869018190385759 152.99172078317434398 26.009497869018190385759 35.67888240713283210
27.009497869018204596614 154.05466344712110072 27.009497869018204596614 35.04392994881555978
28.009497869018190385759 155.05194799398373107 28.009497869018190385759 34.38323508027924902
29.009497869018190385759 155.98608191077983065 29.009497869018190385759 33.71371711762625978
30.009497869018190385759 156.86202470015254562 30.009497869018190385759 33.04278173838252997
31.009497869018190385759 157.68186805978106690 31.009497869018190385759 32.35363379819838059
32.009497869018190385759 158.45275044424005273 32.009497869018190385759 31.66167933249814936
33.009497869018190385759 159.18039887520859565 33.009497869018190385759 30.98132063786486157
34.009497869018190385759 159.86767878792667830 34.009497869018190385759 30.29530600239356630
35.009497869018190385759 160.51641100857111155 35.009497869018190385759 29.58176974226341116
36.009497869018190385759 161.12905499500408268 36.009497869018190385759 28.91784239551560987
37.009497869018190385759 161.70703484551634688 37.009497869018190385759 28.25848814029778211
38.009497869018190385759 162.25167020914997806 38.009497869018190385759 27.59337731215923739
39.009497869018190385759 162.76417289866392935 39.009497869018190385759 26.91477680464963740
40.009497869018190385759 163.24749595342262865 40.009497869018190385759 26.20937241750304736
41.009497869018190385759 163.70351119148887165 41.009497869018190385759 25.55742898406329644
42.009497869018190385759 164.13393071367758580 42.009497869018190385759 24.88873142501157432
43.009497869018190385759 164.54042647630546981 43.009497869018190385759 24.24214022886455311
44.009497869018190385759 164.92447818797239734 44.009497869018190385759 23.59053973392769521
46.009497869018190385759 165.63050903003119174 46.009497869018190385759 22.33361688214603902
48.009497869018190385759 166.26155797483139054 48.009497869018190385759 21.13214686865766367
50.009497869018218807469 166.82573419308050688 50.009497869018218807469 19.96899423275311847
52.009497869018190385759 167.33080282283870588 52.009497869018190385759 18.85012480030238535
54.009497869018190385759 167.78313319166474571 54.009497869018190385759 17.78458211720931104
56.009497869018190385759 168.18861929453504445 56.009497869018190385759 16.76319849044953258
58.009497869018190385759 168.55223174367867500 58.009497869018190385759 15.79034851519148752
60.009497869018190385759 168.87867158622395891 60.009497869018190385759 14.86480772375343129
62.009497869018190385759 169.17171071454487219 62.009497869018190385759 13.98303224910529075
64.009497869018190385759 169.43521903762501779 64.009497869018190385759 13.14483323209577215
66.009497869018218807469 169.67208806761368578 66.009497869018218807469 12.35789412129081910
68.009497869018190385759 169.88517384728061188 68.009497869018190385759 11.61398286176409478
70.009497869018190385759 170.07698990005252426 70.009497869018190385759 10.90046533984767585
72.009497869018190385759 170.24959517953817567 72.009497869018190385759 10.23646103451678613
74.009497869018218807469 170.40511808864340537 74.009497869018218807469 9.60374041182209837
76.009497869018190385759 170.54529526081327617 76.009497869018190385759 9.00540762877914602
78.009497869018190385759 170.67166008812472455 78.009497869018190385759 8.43855750394522097
80.009497869018218807469 170.78563843044264559 80.009497869018218807469 7.90651983738073394
82.009497869018190385759 170.88842217545524704 82.009497869018190385759 7.40109331275519811
84.009497869018190385759 170.98108061768823518 84.009497869018190385759 6.90819954272538173
86.009497869018218807469 171.06470131165173143 86.009497869018218807469 6.45686457793147728
88.009497869018190385759 171.14016549429072711 88.009497869018190385759 6.01695909675903540
91.009497869018190385759 171.23977494302923219 91.009497869018190385759 5.40833636426250663
94.009497869018190385759 171.32527936777401578 94.009497869018190385759 4.84223826133675139
97.009497869018190385759 171.39849605723117065 97.009497869018190385759 4.33075184754666598
99.504748934509137825444 171.45132618153277804 99.504748934509137825444 3.68066120475835890
nan nan nan nan

