Time Pressure difference Time.1 Pressure.1 difference.1
(hr) (psi) (hr) (psi)
0.000200000000006639311 0.25412687988151167 0.000200000000006639311 0.20369613195525563
0.000399999999999067768 0.47520667797655353 0.000399999999999067768 0.43420716537666526
0.000600000000019917934 0.67859799458416126 0.000600000000019917934 0.59607382803999465
0.000799999999998135536 0.86935423588545668 0.000799999999998135536 0.74629628896044808
0.001007140329448930061 1.05652925745444337 0.001007140329448930061 0.89180707475747023
0.001267914553963578328 1.28004231361710707 0.001267914553963578328 1.06251315704211891
0.001596209851982166583 1.54582826593129541 0.001596209851982166583 1.26052044308810229
0.002009509145210586212 1.86052390159754433 0.002009509145210586212 1.48895991644606140
0.002529822128153114136 2.23150548505321522 0.002529822128153114136 1.75112903797023134
0.003184857364431081805 2.66692766697129624 0.003184857364431081805 2.05050563205376912
0.004009497869020606231 3.17576734470118716 0.004009497869020606231 2.39077940757441398
0.005047658755856332391 3.76787696605754929 0.005047658755856332391 2.77590337348521876
0.006354625877790454069 4.45405189689787662 0.006354625877790454069 3.21016301122070402
0.007999999999995566213 5.24611534012313108 0.007999999999995566213 3.69825793450306151
0.010071403294347192059 6.15702297118437603 0.010071403294347192059 4.24539891872532671
0.012679145539706837553 7.20099206548924986 0.012679145539706837553 4.85744679009434588
0.015962098519764822413 8.39366942369691138 0.015962098519764822413 5.54112710452699186
0.020095091452077440408 9.75235841031915207 0.020095091452077440408 6.30427763578409994
0.025298221281346400247 11.29629950019277196 0.025298221281346400247 7.15590275665860087
0.031848573644282396344 13.04692046864222021 0.031848573644282396344 8.10565794725598998
0.040094978690177640601 15.02787697850571647 0.040094978690177640601 9.16249534776925856
0.050476587558421215363 17.26467568760557825 0.050476587558421215363 10.33262106727528540
0.063546258777947173257 19.78376997889383659 0.063546258777947173257 11.61756694246037291
0.079999999999998294697 22.61128995607244363 0.079999999999998294697 13.01335710521893851
0.100714032943528764008 25.77174793579721523 0.100714032943528764008 14.51094389837762932
0.126791455396883634421 29.28696097956576239 0.126791455396883634421 16.09858887755512669
0.159620985197506115583 33.17584147832238983 0.159620985197506115583 17.76585296701309602
0.200950914520774404082 37.45514066354943594 0.200950914520774404082 19.50413615527776656
0.252982212813464002465 42.13946747901146495 0.252982212813464002465 21.31074040916799817
0.318485736442795541734 47.24386982352508824 0.318485736442795541734 23.19458707906245110
0.400949786901833249431 52.78643637209529516 0.400949786901833249431 25.16301579430399826
0.504765875584169521062 58.78475944454020663 0.504765875584169521062 27.23741409913100853
0.635462587779429100010 65.26561430392459329 0.635462587779429100010 29.44229221010058239
0.800000000000011368684 72.25631685539269711 0.800000000000011368684 31.81188115145911510
1.007140329435344483500 79.79721808869281574 1.007140329435344483500 34.38158924474311817
1.267914553968893187630 87.92898945037178748 1.267914553968893187630 37.17616186312960735
1.596209851975103788391 96.69937356918532601 1.596209851975103788391 40.21430169529163123
2.009509145207672986544 106.15233982841229476 2.009509145207672986544 43.47500458350052099
2.529822128134725289783 116.31921166507584076 2.529822128134725289783 46.89694354461165915
3.184857364427998049905 127.20746812560489047 3.184857364427998049905 50.37499537593905785
4.009497869018190385759 138.79042691442342061 4.009497869018190385759 53.77031671526543022
5.009497869018204596614 150.58904554164186607 5.009497869018204596614 56.82943789526766665
6.009497869018190385759 160.59806325430830043 6.009497869018190385759 59.07628112225751948
7.009497869018190385759 169.26533773418580608 7.009497869018190385759 60.72586845116413912
8.009497869018204596614 176.87990772129603556 8.009497869018204596614 61.91634722162335436
9.009497869018190385759 183.64486508298901413 9.009497869018190385759 62.74001071377050209
10.009497869018190385759 189.71132871754113580 10.009497869018190385759 63.27428944983229542
11.009497869018204596614 195.19045719249561444 11.009497869018204596614 63.65259142924988822
12.009497869018190385759 200.16962678526371633 12.009497869018190385759 63.85058176749457459
13.009497869018190385759 204.71773713521574223 13.009497869018190385759 63.90295732187133382
14.009497869018204596614 208.89054490157050736 14.009497869018204596614 63.83539015119920634
15.009497869018190385759 212.73393168396444253 15.009497869018190385759 63.65105386468941617
16.009497869018190385759 216.28627459870116923 16.009497869018190385759 63.35675254529174794
17.009497869018190385759 219.57605765789560337 17.009497869018190385759 62.90833331102125925
18.009497869018204596614 222.62933178908500054 18.009497869018204596614 62.38945224775589793
19.009497869018190385759 225.46772270194256294 19.009497869018190385759 61.70770724441205601
20.009497869018190385759 228.10895027019904546 20.009497869018190385759 61.03679016743396346
21.009497869018204596614 230.56871572983135366 21.009497869018204596614 60.32051114005061976
22.009497869018190385759 232.86434633581094999 22.009497869018190385759 59.56972311440196677
23.009497869018190385759 235.01368222628997273 23.009497869018190385759 58.76594226573979540
24.009497869018204596614 237.02870780122057681 24.009497869018204596614 57.95975047362398413
25.009497869018190385759 238.92026601970354704 25.009497869018190385759 57.10994631189340254
26.009497869018190385759 240.69818140456305855 26.009497869018190385759 56.13272447673915622
27.009497869018204596614 242.37048344051382287 27.009497869018204596614 55.13376910050723012
28.009497869018190385759 243.93948714570714742 28.009497869018190385759 54.09431381164623787
29.009497869018190385759 245.40913748894234914 29.009497869018190385759 53.04097736178268718
30.009497869018190385759 246.78723713601584677 30.009497869018190385759 51.98541092461044144
31.009497869018190385759 248.07707690439696080 31.009497869018190385759 50.90119110492418031
32.009497869018190385759 249.28988755236042607 32.009497869018190385759 49.81255584638717693
33.009497869018190385759 250.43467926487559794 33.009497869018190385759 48.74216393457187735
34.009497869018190385759 251.51596016203984618 34.009497869018190385759 47.66287366755884847
35.009497869018190385759 252.53659490572607638 35.009497869018190385759 46.54028429278510259
36.009497869018190385759 253.50045290162282186 36.009497869018190385759 45.49574342397930593
37.009497869018190385759 254.40977464919598106 37.009497869018190385759 44.45839728969263405
38.009497869018190385759 255.26663632042991026 38.009497869018190385759 43.41199447818156187
39.009497869018190385759 256.07294443108764881 39.009497869018190385759 42.34436867972895158
40.009497869018190385759 256.83334492672094029 40.009497869018190385759 41.23457298443366881
41.009497869018190385759 257.55078269350622122 41.009497869018190385759 40.20888611716853944
42.009497869018190385759 258.22795133832897818 42.009497869018190385759 39.15684038848803539
43.009497869018190385759 258.86748130970477177 43.009497869018190385759 38.13957406696363250
44.009497869018190385759 259.47170059745656090 44.009497869018190385759 37.11442673656728175
46.009497869018190385759 260.58248187914387017 46.009497869018190385759 35.13694035337631050
48.009497869018190385759 261.57529595178215231 48.009497869018190385759 33.24669658215537282
50.009497869018218807469 262.46290077790678197 50.009497869018218807469 31.41673661618486335
52.009497869018190385759 263.25751306179370204 52.009497869018190385759 29.65644634530332269
54.009497869018190385759 263.96915351274844852 54.009497869018190385759 27.98005376198878480
56.009497869018190385759 264.60709501079861639 56.009497869018190385759 26.37313555609517124
58.009497869018190385759 265.17915770018413468 58.009497869018190385759 24.84257417260729639
60.009497869018190385759 265.69273762487819113 60.009497869018190385759 23.38644318607759587
62.009497869018190385759 266.15376901210726146 62.009497869018190385759 21.99916711604927499
64.009497869018190385759 266.56834029626350002 64.009497869018190385759 20.68044883497826447
66.009497869018218807469 266.94100062361638948 66.009497869018218807469 19.44237652703081309
68.009497869018190385759 267.27624333731648676 68.009497869018190385759 18.27199889889610063
70.009497869018190385759 267.57802290309990667 70.009497869018190385759 17.14943900450173331
72.009497869018190385759 267.84957862298034570 72.009497869018190385759 16.10477705861476849
74.009497869018218807469 268.09425906187431110 74.009497869018218807469 15.10933297549597398
76.009497869018190385759 268.31479642326229396 76.009497869018190385759 14.16799045044994898
78.009497869018190385759 268.51360315588590311 78.009497869018190385759 13.27617883163795298
80.009497869018218807469 268.69292253065333398 80.009497869018218807469 12.43913681312055353
82.009497869018190385759 268.85462971569467072 82.009497869018190385759 11.64396146187779024
84.009497869018190385759 269.00040700627675960 84.009497869018190385759 10.86850359092570883
86.009497869018218807469 269.13196542565901836 86.009497869018218807469 10.15842918510771220
88.009497869018190385759 269.25069140265566148 88.009497869018190385759 9.46633650998727560
91.009497869018190385759 269.40740454398991233 91.009497869018190385759 8.50880505584403046
94.009497869018190385759 269.54192659154097100 94.009497869018190385759 7.61817657494790801
97.009497869018190385759 269.65711664176455997 97.009497869018190385759 6.81346734635574514
99.504748934509137825444 269.74023300111838353 99.504748934509137825444 5.79069542990000485
nan nan nan nan

