Time Pressure difference Time.1 Pressure.1 difference.1
(hr) (psi) (hr) (psi)
0.000200000000006639311 0.70737783550579680 0.000200000000006639311 0.56700073990832800
0.000399999999999067768 1.32276708171007762 0.000399999999999067768 1.20864241102107384
0.000600000000019917934 1.88891934930824079 0.000600000000019917934 1.65920824462639604
0.000799999999998135536 2.41990110591677787 0.000799999999998135536 2.07736172488716475
0.001007140329448930061 2.94091431664031377 0.001007140329448930061 2.48239996699613652
0.001267914553963578328 3.56307668667118094 0.001267914553963578328 2.95757087001313046
0.001596209851982166583 4.30290826900327694 0.001596209851982166583 3.50873635665071726
0.002009509145210586212 5.17888296992631503 0.002009509145210586212 4.14461171262794092
0.002529822128153114136 6.21153307620292328 0.002529822128153114136 4.87437562350069875
0.003184857364431081805 7.42355756066530681 0.003184857364431081805 5.70770882785377864
0.004009497869020606231 8.83994417045590808 0.004009497869020606231 6.65488185779617680
0.005047658755856332391 10.48811780140950667 0.005047658755856332391 7.72689815742734964
0.006354625877790454069 12.39812801985819846 0.006354625877790454069 8.93568662849379436
0.007999999999995566213 14.60288543990438903 0.007999999999995566213 10.29432893549345351
0.010071403294347192059 17.13845298280363494 0.010071403294347192059 11.81732959294502194
0.012679145539706837553 20.04440531106048695 0.012679145539706837553 13.52100257187905719
0.015962098519764822413 23.36429625883852523 0.015962098519764822413 15.42406887177924091
0.020095091452077440408 27.14629080790207638 0.020095091452077440408 17.54834541905929868
0.025298221281346400247 31.44394600601604495 0.025298221281346400247 19.91889644045243557
0.031848573644282396344 36.31690738668628882 0.031848573644282396344 22.56259856003310915
0.040094978690177640601 41.83102194564878573 0.040094978690177640601 25.50437061187278687
0.050476587558421215363 48.05728903728017798 0.050476587558421215363 28.76148768315531257
0.063546258777947173257 55.06934328371544041 0.063546258777947173257 32.33821373572531144
0.079999999999998294697 62.93991943936877220 0.079999999999998294697 36.22348169562312847
0.100714032943528764008 71.73724904868485908 0.100714032943528764008 40.39210685137444301
0.126791455396883634421 81.52206124722962954 0.126791455396883634421 44.81141451944112220
0.159620985197506115583 92.34699984102888948 0.159620985197506115583 49.45234688900084308
0.200950914520774404082 104.25869291552390905 0.200950914520774404082 54.29096529797866566
0.252982212813464002465 117.29780536623464116 0.252982212813464002465 59.31975960469776510
0.318485736442795541734 131.50622394712738128 0.318485736442795541734 64.56356293788341816
0.400949786901833249431 146.93429960013372693 0.400949786901833249431 70.04280560825442592
0.504765875584169521062 163.63100163192561354 0.504765875584169521062 75.81702116360851562
0.635462587779429100010 181.67086063777369986 0.635462587779429100010 81.95443530263614207
0.800000000000011368684 201.12991212350405590 0.800000000000011368684 88.55033219145880707
1.007140329435344483500 222.12047555647095010 1.007140329435344483500 95.70327307577809961
1.267914553968893187630 244.75576241528145260 1.267914553968893187630 103.48213822723201361
1.596209851975103788391 269.16866725011590233 1.596209851975103788391 111.93898773264739077
2.009509145207672986544 295.48158154977227241 2.009509145207672986544 121.01535522420965663
2.529822128134725289783 323.78169603210147898 2.529822128134725289783 130.54053326390533130
3.184857364427998049905 354.08982908387559974 3.184857364427998049905 140.22190493686051127
4.009497869018190385759 386.33170889055941188 4.009497869018190385759 149.67299118550596404
5.009497869018204596614 419.17389115152917611 5.009497869018204596614 158.18824356600532610
6.009497869018190385759 447.03460894897875733 6.009497869018190385759 164.44247019236613028
7.009497869018190385759 471.16050174776103177 7.009497869018190385759 169.03419820926785633
8.009497869018204596614 492.35612669818294762 8.009497869018204596614 172.34796925251870903
9.009497869018190385759 511.18680253237488387 9.009497869018190385759 174.64068735668718091
10.009497869018190385759 528.07317801923773004 10.009497869018190385759 176.12788515350578677
11.009497869018204596614 543.32466988376847894 11.009497869018204596614 177.18091203319971783
12.009497869018190385759 557.18449538035054047 12.009497869018190385759 177.73203034458762772
13.009497869018190385759 569.84444090240879177 13.009497869018190385759 177.87782092882542884
14.009497869018204596614 581.45970854793324634 14.009497869018204596614 177.68974354415999528
15.009497869018190385759 592.15801257782982248 15.009497869018190385759 177.17663212746421664
16.009497869018190385759 602.04617806104215560 16.009497869018190385759 176.35742626305867020
17.009497869018190385759 611.20349200115595067 17.009497869018190385759 175.10922368218521683
18.009497869018204596614 619.70246876085025178 18.009497869018204596614 173.66488625676709034
19.009497869018190385759 627.60330483609220664 19.009497869018190385759 171.76720701458256713
20.009497869018190385759 634.95532458773209328 20.009497869018190385759 169.89966797291208422
21.009497869018204596614 641.80223337399627326 21.009497869018204596614 167.90586114600392875
22.009497869018190385759 648.19226267721626300 22.009497869018190385759 165.81599639515724220
23.009497869018190385759 654.17507162167282786 23.009497869018190385759 163.57862285477159503
24.009497869018204596614 659.78401952339754644 24.009497869018204596614 161.33453830466294221
25.009497869018190385759 665.04928842744880058 25.009497869018190385759 158.96905603529779683
26.009497869018190385759 669.99822549872908439 26.009497869018190385759 156.24889881744380205
27.009497869018204596614 674.65318130290972931 27.009497869018204596614 153.46824494826122987
28.009497869018190385759 679.02059983572178226 28.009497869018190385759 150.57485707570569389
29.009497869018190385759 683.11146216100121364 29.009497869018190385759 147.64283013581155046
30.009497869018190385759 686.94748747997846294 30.009497869018190385759 144.70459588877866963
31.009497869018190385759 690.53783598593781790 31.009497869018190385759 141.68660318521361319
32.009497869018190385759 693.91376918684431985 32.009497869018190385759 138.65631983542294847
33.009497869018190385759 697.10036748798245299 33.009497869018190385759 135.67681796582198217
34.009497869018190385759 700.11017951954102045 34.009497869018190385759 132.67254697599940982
35.009497869018190385759 702.95117924443206903 35.009497869018190385759 129.54775025060183680
36.009497869018190385759 705.63413739191435070 36.009497869018190385759 126.64020635277526594
37.009497869018190385759 708.16529053036470032 37.009497869018190385759 123.75268944199375198
38.009497869018190385759 710.55041781248439747 38.009497869018190385759 120.83996271186975946
39.009497869018190385759 712.79482614242476757 39.009497869018190385759 117.86816048932772105
40.009497869018190385759 714.91144779602313974 40.009497869018190385759 114.77897575940988872
41.009497869018190385759 716.90848004548581685 41.009497869018190385759 111.92391313710476197
42.009497869018190385759 718.79342071162250249 42.009497869018190385759 108.99547899918862015
43.009497869018190385759 720.57359181002743753 43.009497869018190385759 106.16385548502753977
44.009497869018190385759 722.25547344387916837 44.009497869018190385759 103.31029469685576316
46.009497869018190385759 725.34740161427453131 46.009497869018190385759 97.80583944939816377
48.009497869018190385759 728.11096078633056550 48.009497869018190385759 92.54422939032838258
50.009497869018218807469 730.58166353521460223 50.009497869018218807469 87.45042301929812822
52.009497869018190385759 732.79351581036269181 52.009497869018190385759 82.55054653925526509
54.009497869018190385759 734.77441087384215734 54.009497869018190385759 77.88420444433042178
56.009497869018190385759 736.55016035882579217 56.009497869018190385759 73.41124856162382173
58.009497869018190385759 738.14253211886875761 58.009497869018190385759 69.15083660101100804
60.009497869018190385759 739.57211349829117353 60.009497869018190385759 65.09760623850641537
62.009497869018190385759 740.85542278438617814 62.009497869018190385759 61.23603778056455837
64.009497869018190385759 742.00940750959921388 64.009497869018190385759 57.56530415435045001
66.009497869018218807469 743.04673050299800252 66.009497869018218807469 54.11905356565289793
68.009497869018190385759 743.97989926222885515 68.009497869018190385759 50.86123529117379860
70.009497869018190385759 744.81992128643685191 70.009497869018190385759 47.73652062622947767
72.009497869018190385759 745.57581337246040221 72.009497869018190385759 44.82863970288384792
74.009497869018218807469 746.25689645716249743 74.009497869018218807469 42.05775973453125971
76.009497869018190385759 746.87077579735466770 76.009497869018190385759 39.43747478810177398
78.009497869018190385759 747.42416659282218916 78.009497869018190385759 36.95506217244975034
80.009497869018218807469 747.92331312642124885 80.009497869018218807469 34.62510411542597666
82.009497869018190385759 748.37343504423506602 82.009497869018190385759 32.41168450758311081
84.009497869018190385759 748.77921511884164829 84.009497869018190385759 30.25314972159046434
86.009497869018218807469 749.14541608895774516 86.009497869018218807469 28.27661384128612809
88.009497869018190385759 749.47589716465256515 88.009497869018190385759 26.35013121684129445
91.009497869018190385759 749.91211785395546485 91.009497869018190385759 23.68478338832201047
94.009497869018190385759 750.28656826576889216 94.009497869018190385759 21.20566410999198581
97.009497869018190385759 750.60720687132265994 97.009497869018190385759 18.96570636684229427
99.504748934509137825444 750.83856638119527815 99.504748934509137825444 16.11875768980384649
nan nan nan nan

