Time Pressure difference Time.1 Pressure.1 difference.1
(hr) (psi) (hr) (psi)
0.000200000000006639311 0.17475574479523132 0.000200000000006639311 0.14007597019388812
0.000399999999999067768 0.32678596211538335 0.000399999999999067768 0.29859177673847392
0.000600000000019917934 0.46665231956335479 0.000600000000019917934 0.40990282421380453
0.000799999999998135536 0.59782989919794416 0.000799999999998135536 0.51320648912074651
0.001007140329448930061 0.72654477704401454 0.001007140329448930061 0.61327007058664396
0.001267914553963578328 0.88024827593943544 0.001267914553963578328 0.73065973265088169
0.001596209851982166583 1.06302162944864409 0.001596209851982166583 0.86682364716469495
0.002009509145210586212 1.27942876520817417 0.002009509145210586212 1.02391490144646968
0.002529822128153114136 1.53454212807769075 0.002529822128153114136 1.20420106446720010
0.003184857364431081805 1.83396943673916546 0.003184857364431081805 1.41007373601505748
0.004009497869020606231 2.18388384526026824 0.004009497869020606231 1.64407022274295311
0.005047658755856332391 2.59106059857656135 0.005047658755856332391 1.90890889519120543
0.006354625877790454069 3.06292335923662185 0.006354625877790454069 2.20753675566136076
0.007999999999995566213 3.60760260375590702 0.007999999999995566213 2.54318559331580385
0.010071403294347192059 4.23400757744459799 0.010071403294347192059 2.91943870849330711
0.012679145539706837553 4.95191509161041576 0.012679145539706837553 3.34032642277720759
0.015962098519764822413 5.77208500095321853 0.015962098519764822413 3.81047370749664349
0.020095091452077440408 6.70641633147974581 0.020095091452077440408 4.33527037419673711
0.025298221281346400247 7.76814020424215368 0.025298221281346400247 4.92090847101728368
0.031848573644282396344 8.97199188391561009 0.031848573644282396344 5.57402779386644731
0.040094978690177640601 10.33423868932858802 0.040094978690177640601 6.30078447202762781
0.050476587558421215363 11.87242081531232785 0.050476587558421215363 7.10544626818108593
0.063546258777947173257 13.60472949233521156 0.063546258777947173257 7.98906658234946132
0.079999999999998294697 15.54913364102516127 0.079999999999998294697 8.94891132441083137
0.100714032943528764008 17.72248967639753658 0.100714032943528764008 9.97875868080214978
0.126791455396883634421 20.13980056403015695 0.126791455396883634421 11.07053646100366251
0.159620985197506115583 22.81407181112032490 0.159620985197506115583 12.21706601293229433
0.200950914520774404082 25.75682275767372076 0.200950914520774404082 13.41243335609512322
0.252982212813464002465 28.97809955405993776 0.252982212813464002465 14.65478313068812888
0.318485736442795541734 32.48825020741040959 0.318485736442795541734 15.95025029272513883
0.400949786901833249431 36.29971377916690045 0.400949786901833249431 17.30388209416521406
0.504765875584169521062 40.42458800158792087 0.504765875584169521062 18.73038613392296980
0.635462587779429100010 44.88128545283581872 0.635462587779429100010 20.24661738283629120
0.800000000000011368684 49.68859049507826597 0.800000000000011368684 21.87611553155133848
1.007140329435344483500 54.87425134318328190 1.007140329435344483500 23.64322986419320927
1.267914553968893187630 60.46623658094060261 1.267914553968893187630 25.56497706204255493
1.596209851975103788391 66.49737744072743340 1.596209851975103788391 27.65421842607726077
2.009509145207672986544 72.99791040255200869 2.009509145207672986544 29.89651000125652303
2.529822128134725289783 79.98937569296995775 2.529822128134725289783 32.24967898547266998
3.184857364427998049905 87.47691643705979914 3.184857364427998049905 34.64143517633069536
4.009497869018190385759 95.44218398772679279 4.009497869018190385759 36.97629998775787641
5.009497869018204596614 103.55575460534824117 5.009497869018204596614 39.07996962112927264
6.009497869018190385759 110.43866815570241613 6.009497869018190385759 40.62505907311407327
7.009497869018190385759 116.39890348296064815 7.009497869018190385759 41.75943282532109180
8.009497869018204596614 121.63522421382273819 8.009497869018204596614 42.57809082911632714
9.009497869018190385759 126.28729078309655165 9.009497869018190385759 43.14450051823670407
10.009497869018190385759 130.45902330987075857 10.009497869018190385759 43.51190863536412223
11.009497869018204596614 134.22686234333258426 11.009497869018204596614 43.77205602394992923
12.009497869018190385759 137.65089403589368544 12.009497869018190385759 43.90820828394831921
13.009497869018190385759 140.77849868750453766 13.009497869018190385759 43.94422544599919433
14.009497869018204596614 143.64801854875122444 14.009497869018204596614 43.89776144644110190
15.009497869018190385759 146.29100507582214163 15.009497869018190385759 43.77099868503299973
16.009497869018190385759 148.73384910759997979 16.009497869018190385759 43.56861613388556265
17.009497869018190385759 150.99613827981312397 17.009497869018190385759 43.26025112620914825
18.009497869018204596614 153.09578706591872788 18.009497869018204596614 42.90343154571706918
19.009497869018190385759 155.04766684434954982 19.009497869018190385759 42.43461511876006398
20.009497869018190385759 156.86396306252044042 20.009497869018190385759 41.97324474527650295
21.009497869018204596614 158.55547300873331551 21.009497869018204596614 41.48068026343207038
22.009497869018190385759 160.13411213777686726 22.009497869018190385759 40.96438493620519239
23.009497869018190385759 161.61214859944871591 23.009497869018190385759 40.41164796904298129
24.009497869018204596614 162.99782372083933524 24.009497869018204596614 39.85725306542362034
25.009497869018190385759 164.29859389300162320 25.009497869018190385759 39.27286718982259117
26.009497869018190385759 165.52121515765844606 26.009497869018190385759 38.60085984564801720
27.009497869018204596614 166.67120916046292223 27.009497869018204596614 37.91390697048579028
28.009497869018190385759 167.75016787280134167 28.009497869018190385759 37.19910347047453314
29.009497869018190385759 168.76080413623159870 29.009497869018190385759 36.47475429536289226
30.009497869018190385759 169.70848361956160488 30.009497869018190385759 35.74887162212937852
31.009497869018190385759 170.59546932329760693 31.009497869018190385759 35.00328484201634893
32.009497869018190385759 171.42948431682867749 32.009497869018190385759 34.25466169162515229
33.009497869018190385759 172.21672464516103673 33.009497869018190385759 33.51858396596585976
34.009497869018190385759 172.96029041279999205 34.009497869018190385759 32.77638709741717804
35.009497869018190385759 173.66215156530753916 35.009497869018190385759 32.00441467805222828
36.009497869018190385759 174.32496898166391475 36.009497869018190385759 31.28611397101042257
37.009497869018190385759 174.95028338889915176 37.009497869018190385759 30.57276087592562064
38.009497869018190385759 175.53952251076140101 38.009497869018190385759 29.85317976444814292
39.009497869018190385759 176.09399740329587303 39.009497869018190385759 29.11900421537525574
40.009497869018190385759 176.61690294960808956 40.009497869018190385759 28.35582964135027950
41.009497869018190385759 177.11026426320563587 41.009497869018190385759 27.65049428879261484
42.009497869018190385759 177.57593366005636426 42.009497869018190385759 26.92703270550821060
43.009497869018190385759 178.01572002393393745 43.009497869018190385759 26.22748792002156648
44.009497869018190385759 178.43122424647012281 44.009497869018190385759 25.52252359144763716
46.009497869018190385759 179.19507657990445182 46.009497869018190385759 24.16266309232179310
48.009497869018190385759 179.87780625725292794 48.009497869018190385759 22.86279682772876498
50.009497869018218807469 180.48818656234138302 50.009497869018218807469 21.60438600181479529
52.009497869018190385759 181.03461857126086443 52.009497869018190385759 20.39388502101680345
54.009497869018190385759 181.52399323753382987 54.009497869018190385759 19.24107806646351904
56.009497869018190385759 181.96268725400125277 56.009497869018190385759 18.13604664268462230
58.009497869018190385759 182.35607830889375691 58.009497869018190385759 17.08352360910803469
60.009497869018190385759 182.70925244888888983 60.009497869018190385759 16.08218421837116807
62.009497869018190385759 183.02629047133947893 62.009497869018190385759 15.12819437295443237
64.009497869018190385759 183.31137921743052743 64.009497869018190385759 14.22134974679327080
66.009497869018218807469 183.56764700418551683 66.009497869018218807469 13.36996303639653227
68.009497869018190385759 183.79818377442859401 68.009497869018190385759 12.56512800992581091
70.009497869018190385759 184.00570890048786055 70.009497869018190385759 11.79317586336968304
72.009497869018190385759 184.19244995717275515 72.009497869018190385759 11.07479189510221218
74.009497869018218807469 184.36070965624782048 74.009497869018218807469 10.39025363520408085
76.009497869018190385759 184.51236685544884608 76.009497869018190385759 9.74291946044640333
78.009497869018190385759 184.64908052637633773 78.009497869018190385759 9.12964626504418142
80.009497869018218807469 184.77239330190133160 80.009497869018218807469 8.55403654820070791
82.009497869018190385759 184.88359468120373208 82.009497869018190385759 8.00721733405842606
84.009497869018190385759 184.98384153034373867 84.009497869018190385759 7.47395726389685677
86.009497869018218807469 185.07431047079566611 86.009497869018218807469 6.98565952181379668
88.009497869018190385759 185.15595490977145232 88.009497869018190385759 6.50972729864878374
91.009497869018190385759 185.26372202888074980 91.009497869018190385759 5.85126046305986769
94.009497869018190385759 185.35622897116925856 94.009497869018190385759 5.23880087756691637
97.009497869018190385759 185.43544185502165078 97.009497869018190385759 4.68542549023367627
99.504748934509137825444 185.49259858433072168 99.504748934509137825444 3.98209466549287994
nan nan nan nan

