Time Pressure difference Time.1 Pressure.1 difference.1
(hr) (psi) (hr) (psi)
0.000200000000006639311 0.55420546954981720 0.000200000000006639311 0.44422498914077663
0.000399999999999067768 1.03634113882010026 0.000399999999999067768 0.94692850312280985
0.000600000000019917934 1.47990137996984239 0.000600000000019917934 1.29993086882146791
0.000799999999998135536 1.89590677195842061 0.000799999999998135536 1.62753930414388126
0.001007140329448930061 2.30410216146229319 0.001007140329448930061 1.94487241508752429
0.001267914553963578328 2.79154433325812956 0.001267914553963578328 2.31715198083705909
0.001596209851982166583 3.37117616351044136 0.001596209851982166583 2.74897061013186139
0.002009509145210586212 4.05747130320998650 0.002009509145210586212 3.24715642052346531
0.002529822128153114136 4.86651607151331422 0.002529822128153114136 3.81890058691590184
0.003184857364431081805 5.81609430934014249 0.003184857364431081805 4.47178762497205540
0.004009497869020606231 6.92578303118395855 0.004009497869020606231 5.21386413268283100
0.005047658755856332391 8.21706867118303919 0.005047658755856332391 6.05375091861434100
0.006354625877790454069 9.71349399981016504 0.006354625877790454069 7.00079385460734294
0.007999999999995566213 11.44084331709044555 0.007999999999995566213 8.06524196127242909
0.010071403294347192059 13.42737064400757241 0.010071403294347192059 9.25845901179550879
0.012679145539706837553 15.70408132638203469 0.012679145539706837553 10.59322642442493034
0.015962098519764822413 18.30509825003490931 0.015962098519764822413 12.08421143891365723
0.020095091452077440408 21.26815697154532714 0.020095091452077440408 13.74850684406614576
0.025298221281346400247 24.63521754014642795 0.025298221281346400247 15.60574957342533153
0.031848573644282396344 28.45301011791563539 0.031848573644282396344 17.67699650963223945
0.040094978690177640601 32.77312349285082149 0.040094978690177640601 19.98177067623104008
0.050476587558421215363 37.65118314338093342 0.050476587558421215363 22.53360649192089582
0.063546258777947173257 43.14487918684792334 0.063546258777947173257 25.33584461972180080
0.079999999999998294697 49.31119672611963267 0.079999999999998294697 28.37981439932677930
0.100714032943528764008 56.20359275861529369 0.100714032943528764008 31.64578450166737511
0.126791455396883634421 63.86964641023109124 0.126791455396883634421 35.10815546995583247
0.159620985197506115583 72.35060223765648857 0.159620985197506115583 38.74416153902033955
0.200950914520774404082 81.68299169365849366 0.200950914520774404082 42.53504761534549061
0.252982212813464002465 91.89867428299486107 0.252982212813464002465 46.47492976903485840
0.318485736442795541734 103.03046679322184787 0.318485736442795541734 50.58326387653071521
0.400949786901833249431 115.11781740325439216 0.400949786901833249431 54.87605636237255879
0.504765875584169521062 128.19909182973700013 0.504765875584169521062 59.39994965180351727
0.635462587779429100010 142.33268215321638195 0.635462587779429100010 64.20839616230153979
0.800000000000011368684 157.57815949833585023 0.800000000000011368684 69.37604766181220839
1.007140329435344483500 174.02352218794379723 1.007140329435344483500 74.98012339401512349
1.267914553968893187630 191.75746740409849167 1.267914553968893187630 81.07458861109910231
1.596209851975103788391 210.88411331800418225 1.596209851975103788391 87.70023054644421734
2.009509145207672986544 231.49934932442789659 2.009509145207672986544 94.81124287251071792
2.529822128134725289783 253.67148626137085898 2.529822128134725289783 102.27388236030377300
3.184857364427998049905 277.41683459720957217 3.184857364427998049905 109.85889402533560144
4.009497869018190385759 302.67720499693433567 4.009497869018190385759 117.26348522014049536
5.009497869018204596614 328.40789109903266763 5.009497869018204596614 123.93488373872072827
6.009497869018190385759 350.23577630254635551 6.009497869018190385759 128.83484869401914352
7.009497869018190385759 369.13755845592299920 7.009497869018190385759 132.43230489623738322
8.009497869018204596614 385.74357957849764489 8.009497869018204596614 135.02852709154024069
9.009497869018190385759 400.49674686591572481 9.009497869018190385759 136.82479048811319444
10.009497869018190385759 413.72662372373349626 10.009497869018190385759 137.98995726593562949
11.009497869018204596614 425.67562719240135038 11.009497869018204596614 138.81496651419976729
12.009497869018190385759 436.53430937279432555 12.009497869018190385759 139.24674818335802229
13.009497869018190385759 446.45292810858012444 13.009497869018190385759 139.36096994030023666
14.009497869018204596614 455.55307874424687498 14.009497869018204596614 139.21361797357417345
15.009497869018190385759 463.93482087790602009 15.009497869018190385759 138.81161335970622872
16.009497869018190385759 471.68184816593458208 16.009497869018190385759 138.16979459192393165
17.009497869018190385759 478.85627916625998068 17.009497869018190385759 137.19187209746007738
18.009497869018204596614 485.51492631263465682 18.009497869018204596614 136.06028490195532754
19.009497869018190385759 491.70495142670210953 19.009497869018190385759 134.57352045630685211
20.009497869018190385759 497.46499839747514216 20.009497869018190385759 133.11036978980118306
21.009497869018204596614 502.82930882450892796 21.009497869018204596614 131.54829278761724254
22.009497869018190385759 507.83567036522060789 22.009497869018190385759 129.91095780565467521
23.009497869018190385759 512.52298918390908966 23.009497869018190385759 128.15805491377776093
24.009497869018204596614 516.91740112266188589 24.009497869018204596614 126.39989418357448869
25.009497869018190385759 521.04255274433978684 25.009497869018190385759 124.54662264182778131
26.009497869018190385759 524.91986958364998372 26.009497869018190385759 122.41547584516264635
27.009497869018204596614 528.56686251684652689 27.009497869018204596614 120.23693206576371040
28.009497869018190385759 531.98858018625446675 28.009497869018190385759 117.97006518923397778
29.009497869018190385759 535.19362586629620182 29.009497869018190385759 115.67292597254527209
30.009497869018190385759 538.19901578155793231 30.009497869018190385759 113.37092355065729521
31.009497869018190385759 541.01192661890399904 31.009497869018190385759 111.00643320416341453
32.009497869018190385759 543.65685066213393384 32.009497869018190385759 108.63231357184710646
33.009497869018190385759 546.15343752011233391 33.009497869018190385759 106.29797942991564241
34.009497869018190385759 548.51151859995536597 34.009497869018190385759 103.94423955993654829
35.009497869018190385759 550.73734121906295513 35.009497869018190385759 101.49607204673135641
36.009497869018190385759 552.83934386216913026 36.009497869018190385759 99.21811442599322106
37.009497869018190385759 554.82241265961647514 37.009497869018190385759 96.95584723998723575
38.009497869018190385759 556.69107537277318443 38.009497869018190385759 94.67382905378774183
39.009497869018190385759 558.44948977300214210 39.009497869018190385759 92.34552731250478530
40.009497869018190385759 560.10778784019134946 40.009497869018190385759 89.92526053591562629
41.009497869018190385759 561.67239184666016172 41.009497869018190385759 87.68842013497578591
42.009497869018190385759 563.14917606934204741 42.009497869018190385759 85.39409575133281294
43.009497869018190385759 564.54387704801354175 43.009497869018190385759 83.17561906110425696
44.009497869018190385759 565.86157171390527765 44.009497869018190385759 80.93995529399330735
46.009497869018190385759 568.28398787890012045 46.009497869018190385759 76.62740964736312321
48.009497869018190385759 570.44913856881805714 48.009497869018190385759 72.50512460108404866
50.009497869018218807469 572.38484662798305180 50.009497869018218807469 68.51430779858397102
52.009497869018190385759 574.11775451284324845 52.009497869018190385759 64.67542819414094879
54.009497869018190385759 575.66971560588422108 54.009497869018190385759 61.01951450559746348
56.009497869018190385759 577.06095240711147198 56.009497869018190385759 57.51511206205960747
58.009497869018190385759 578.30851925848378414 58.009497869018190385759 54.17723025039838092
60.009497869018190385759 579.42854561480294251 60.009497869018190385759 51.00166787977470051
62.009497869018190385759 580.43397296886951153 62.009497869018190385759 47.97626582020608765
64.009497869018190385759 581.33807911185124340 64.009497869018190385759 45.10037608943203935
66.009497869018218807469 582.15078492164013824 66.009497869018218807469 42.40036086442884766
68.009497869018190385759 582.88188957946283608 68.009497869018190385759 39.84797568088026054
70.009497869018190385759 583.54001707086979422 70.009497869018190385759 37.39987245913254554
72.009497869018190385759 584.13223173669132393 72.009497869018190385759 35.12165079084207520
74.009497869018218807469 584.66583620069036442 74.009497869018218807469 32.95076451642409410
76.009497869018190385759 585.14678891210076017 76.009497869018190385759 30.89786410563878860
78.009497869018190385759 585.58035099201413232 78.009497869018190385759 28.95298178077756290
80.009497869018218807469 585.97141461479463942 80.009497869018218807469 27.12754220066838329
82.009497869018190385759 586.32406918819992825 82.009497869018190385759 25.39340636617731661
84.009497869018190385759 586.64198349861999304 84.009497869018190385759 23.70227084486812075
86.009497869018218807469 586.92888898308103762 86.009497869018218807469 22.15372501738558597
88.009497869018190385759 587.18780919592859391 88.009497869018190385759 20.64439414232841585
91.009497869018190385759 587.52957264935889725 91.009497869018190385759 18.55618856014205065
94.009497869018190385759 587.82294127908664905 94.009497869018190385759 16.61388644837954587
97.009497869018190385759 588.07415026532760294 97.009497869018190385759 14.85895892520321482
99.504748934509137825444 588.25541224353480629 99.504748934509137825444 12.62847551287781833
nan nan nan nan

