Time Pressure difference Time.1 Pressure.1 difference.1
(hr) (psi) (hr) (psi)
0.000200000000006639311 0.09399213365480569 0.000200000000006639311 0.07533966524372468
0.000399999999999067768 0.17576137404612252 0.000399999999999067768 0.16059717075575292
0.000600000000019917934 0.25098829936674460 0.000600000000019917934 0.22046566242575144
0.000799999999998135536 0.32154197765626480 0.000799999999998135536 0.27602739454701503
0.001007140329448930061 0.39077109522287634 0.001007140329448930061 0.32984645230755749
0.001267914553963578328 0.47344030777619034 0.001267914553963578328 0.39298431835804393
0.001596209851982166583 0.57174470109787634 0.001596209851982166583 0.46621988990929808
0.002009509145210586212 0.68813897730320128 0.002009509145210586212 0.55071120197320078
0.002529822128153114136 0.82535134378680575 0.002529822128153114136 0.64767786335885269
0.003184857364431081805 0.98639790422226026 0.003184857364431081805 0.75840619267742138
0.004009497869020606231 1.17459888091687747 0.004009497869020606231 0.88426087677409826
0.005047658755856332391 1.39359832991169630 0.005047658755856332391 1.02670398745343716
0.006354625877790454069 1.64738905775674893 0.006354625877790454069 1.18732056579395895
0.007999999999995566213 1.94034402990855548 0.007999999999995566213 1.36784882509017347
0.010071403294347192059 2.27725507153394746 0.010071403294347192059 1.57021603843265534
0.012679145539706837553 2.66338062696177724 0.012679145539706837553 1.79658990866503210
0.015962098519764822413 3.10450786903858367 0.015962098519764822413 2.04945797016751730
0.020095091452077440408 3.60703667230982328 0.020095091452077440408 2.33171912556398198
0.025298221281346400247 4.17808337678362829 0.025298221281346400247 2.64670375931208524
0.031848573644282396344 4.82557332401835559 0.031848573644282396344 2.99798307638235206
0.040094978690177640601 5.55825586876238820 0.040094978690177640601 3.38886814232561662
0.050476587558421215363 6.38556498034726783 0.050476587558421215363 3.82165436734839359
0.063546258777947173257 7.31728478671415772 0.063546258777947173257 4.29690832118397381
0.079999999999998294697 8.36307984676652083 0.079999999999998294697 4.81315947727275795
0.100714032943528764008 9.53201635981540818 0.100714032943528764008 5.36706144186569833
0.126791455396883634421 10.83216364997637804 0.126791455396883634421 5.95427259854778601
0.159620985197506115583 12.27051671116033482 0.159620985197506115583 6.57093191930621412
0.200950914520774404082 13.85327120432650361 0.200950914520774404082 7.21385857797944841
0.252982212813464002465 15.58583043744259378 0.252982212813464002465 7.88205467188405340
0.318485736442795541734 17.47376007171476076 0.318485736442795541734 8.57881987855734529
0.400949786901833249431 19.52375043899414919 0.400949786901833249431 9.30686885542750630
0.504765875584169521062 21.74230828770665269 0.504765875584169521062 10.07411206406215420
0.635462587779429100010 24.13933679734197568 0.635462587779429100010 10.88961492702350320
0.800000000000011368684 26.72493911089866714 0.800000000000011368684 11.76603823410131788
1.007140329435344483500 29.51403956705076936 1.007140329435344483500 12.71647821380909704
1.267914553968893187630 32.52168102958956553 1.267914553968893187630 13.75008726444519880
1.596209851975103788391 35.76552173106854582 1.596209851975103788391 14.87378281880649489
2.009509145207672986544 39.26182432009769485 2.009509145207672986544 16.07979621581526075
2.529822128134725289783 43.02217417749380246 2.529822128134725289783 17.34544487266458646
3.184857364427998049905 47.04933752590866192 3.184857364427998049905 18.63184760479937907
4.009497869018190385759 51.33344557108811301 4.009497869018190385759 19.88765138783789865
5.009497869018204596614 55.69731821403192384 5.009497869018204596614 21.01910716674283464
6.009497869018190385759 59.39928366940170434 6.009497869018190385759 21.85013137398565775
7.009497869018190385759 62.60498792908241228 7.009497869018190385759 22.46025271481413199
8.009497869018204596614 65.42133573253414625 8.009497869018204596614 22.90056678060041762
9.009497869018190385759 67.92344324987264770 9.009497869018190385759 23.20520944207950009
10.009497869018190385759 70.16720377224123695 10.009497869018190385759 23.40281938555440888
11.009497869018204596614 72.19373074242987798 11.009497869018204596614 23.54273929574996060
12.009497869018190385759 74.03534141372767863 12.009497869018190385759 23.61596859893634814
13.009497869018190385759 75.71751921439486921 13.009497869018190385759 23.63534037932227605
14.009497869018204596614 77.26088647044387869 14.009497869018204596614 23.61034978195039358
15.009497869018190385759 78.68241308858958405 15.009497869018190385759 23.54217060748786494
16.009497869018190385759 79.99629334472508901 16.009497869018190385759 23.43331943455996225
17.009497869018190385759 81.21306242141344001 17.009497869018190385759 23.26746574517224886
18.009497869018204596614 82.34235559322321762 18.009497869018204596614 23.07555083136177032
19.009497869018190385759 83.39217141030752600 19.009497869018190385759 22.82339856985103310
20.009497869018190385759 84.36906379856677063 20.009497869018190385759 22.57525115781804104
21.009497869018204596614 85.27884006445816567 21.009497869018204596614 22.31032603810091430
22.009497869018190385759 86.12790891872460008 22.009497869018190385759 22.03263731628565836
23.009497869018190385759 86.92286876862779366 23.009497869018190385759 21.73534850924622575
24.009497869018204596614 87.66815220045144486 24.009497869018204596614 21.43716798339517382
25.009497869018190385759 88.36776962372597666 25.009497869018190385759 21.12285685508386024
26.009497869018190385759 89.02535476607127407 26.009497869018190385759 20.76141864208160470
27.009497869018204596614 89.64387743690237187 27.009497869018204596614 20.39194199607801750
28.009497869018190385759 90.22419387580949035 28.009497869018190385759 20.00748593033490863
29.009497869018190385759 90.76776318084169759 29.009497869018190385759 19.61789573654976238
30.009497869018190385759 91.27747126948531786 30.009497869018190385759 19.22748075293810999
31.009497869018190385759 91.75453529340708769 31.009497869018190385759 18.82646794291716219
32.009497869018190385759 92.20310909470865113 32.009497869018190385759 18.42382202537607938
33.009497869018190385759 92.62652520755672469 33.009497869018190385759 18.02792364703343253
34.009497869018190385759 93.02645101883665291 34.009497869018190385759 17.62873409622039489
35.009497869018190385759 93.40394606102198338 35.009497869018190385759 17.21352980692051915
36.009497869018190385759 93.76044148416185919 36.009497869018190385759 16.82719277325261942
37.009497869018190385759 94.09676596614097832 37.009497869018190385759 16.44351680577672781
38.009497869018190385759 94.41368740618641198 38.009497869018190385759 16.05649110836852245
39.009497869018190385759 94.71191095396392257 39.009497869018190385759 15.66161581305043526
40.009497869018190385759 94.99315497289677523 40.009497869018190385759 15.25114343259875582
41.009497869018190385759 95.25850866746120005 41.009497869018190385759 14.87177979676096840
42.009497869018190385759 95.50896830321755715 42.009497869018190385759 14.48266699300242344
43.009497869018190385759 95.74550678578120255 43.009497869018190385759 14.10641780558928815
44.009497869018190385759 95.96898515248393835 44.009497869018190385759 13.72725372448378778
46.009497869018190385759 96.37982206488884174 46.009497869018190385759 12.99585465124877182
48.009497869018190385759 96.74702726983723267 48.009497869018190385759 12.29672339339993314
50.009497869018218807469 97.07531946580114379 50.009497869018218807469 11.61988888543823606
52.009497869018190385759 97.36921715984149728 52.009497869018190385759 10.96882262086561255
54.009497869018190385759 97.63242664170147123 54.009497869018190385759 10.34878700785886529
56.009497869018190385759 97.86837760673374476 56.009497869018190385759 9.75444739745985778
58.009497869018190385759 98.07996243705440520 58.009497869018190385759 9.18834935151228827
60.009497869018190385759 98.26991665577688195 60.009497869018190385759 8.64978035649445332
62.009497869018190385759 98.44043511406705704 62.009497869018190385759 8.13667824840178611
64.009497869018190385759 98.59376969861800433 64.009497869018190385759 7.64893313074538472
66.009497869018218807469 98.73160297037865973 66.009497869018218807469 7.19101597575112361
68.009497869018190385759 98.85559685078828807 68.009497869018190385759 6.75813657904376264
70.009497869018190385759 98.96721395046159842 70.009497869018190385759 6.34294319344584601
72.009497869018190385759 99.06765236740368152 72.009497869018190385759 5.95656137784381912
74.009497869018218807469 99.15815061192611779 74.009497869018218807469 5.58838342929303167
76.009497869018190385759 99.23971922504220800 76.009497869018190385759 5.24021564605683032
78.009497869018190385759 99.31325048231396124 78.009497869018190385759 4.91036751307157182
80.009497869018218807469 99.37957408667999459 80.009497869018218807469 4.60077662951034139
82.009497869018190385759 99.43938359347610856 82.009497869018190385759 4.30667067768082656
84.009497869018190385759 99.49330122149962108 84.009497869018190385759 4.01985749253416635
86.009497869018218807469 99.54195981496977197 86.009497869018218807469 3.75722723284805804
88.009497869018190385759 99.58587216262607456 88.009497869018190385759 3.50124775026926649
91.009497869018190385759 99.64383455736613371 91.009497869018190385759 3.14709228092861393
94.009497869018190385759 99.69358928728227909 94.009497869018190385759 2.81768174689854112
97.009497869018190385759 99.73619382640606545 97.009497869018190385759 2.52004956646034417
99.504748934509137825444 99.76693549356433266 99.504748934509137825444 2.14176406311370027
nan nan nan nan

