Time Pressure difference Time.1 Pressure.1 difference.1
(hr) (psi) (hr) (psi)
0.000200000000006639311 0.62452551028415326 0.000200000000006639311 0.50059022017497068
0.000399999999999067768 1.16783668532868057 0.000399999999999067768 1.06707897902155824
0.000600000000019917934 1.66767781134792514 0.000600000000019917934 1.46487184589554853
0.000799999999998135536 2.13646780709384831 0.000799999999998135536 1.83404868821238876
0.001007140329448930061 2.59645683270311167 0.001007140329448930061 2.19164642755465966
0.001267914553963578328 3.14574782277957565 0.001267914553963578328 2.61116247086789199
0.001596209851982166583 3.79892590285033416 0.001596209851982166583 3.09777215739733602
0.002009509145210586212 4.57230120474793722 0.002009509145210586212 3.65916998644415647
0.002529822128153114136 5.48400115093899831 0.002529822128153114136 4.30345958098437631
0.003184857364431081805 6.55406607472124048 0.003184857364431081805 5.03918781356775547
0.004009497869020606231 7.80455700875880876 0.004009497869020606231 5.87542227012123064
0.005047658755856332391 9.25968668096882652 0.005047658755856332391 6.82187760552394895
0.006354625877790454069 10.94598507265039800 0.006354625877790454069 7.88908553716430472
0.007999999999995566213 12.89250810983684659 0.007999999999995566213 9.08859552671026449
0.010071403294347192059 15.13109480863667322 0.010071403294347192059 10.43321323314142113
0.012679145539706837553 17.69668461025714379 0.012679145539706837553 11.93734183757432454
0.015962098519764822413 20.62773006316747626 0.015962098519764822413 13.61750962400194886
0.020095091452077440408 23.96675477823638190 0.020095091452077440408 15.49297818985845865
0.025298221281346400247 27.76104288129566555 0.025298221281346400247 17.58587608965141058
0.031848573644282396344 32.06325386403307220 0.031848573644282396344 19.91993199640718615
0.040094978690177640601 36.93152232799897661 0.040094978690177640601 22.51714610123020677
0.050476587558421215363 42.42853175830740042 0.050476587558421215363 25.39277012971487935
0.063546258777947173257 48.61929224950073802 0.063546258777947173257 28.55056862297795917
0.079999999999998294697 55.56801942629310531 0.079999999999998294697 31.98077074899009986
0.100714032943528764008 63.33495314632904893 0.100714032943528764008 35.66114158039653148
0.126791455396883634421 71.97370958539860908 0.126791455396883634421 39.56283348812862499
0.159620985197506115583 81.53076659193200726 0.159620985197506115583 43.66019208605684554
0.200950914520774404082 92.04729089096943540 0.200950914520774404082 47.93208255146344499
0.252982212813464002465 103.55918446211857997 0.252982212813464002465 52.37187437540737989
0.318485736442795541734 116.10342803206029316 0.318485736442795541734 57.00149208196991424
0.400949786901833249431 129.72447513909443728 0.400949786901833249431 61.83897306161832574
0.504765875584169521062 144.46555951165086640 0.504765875584169521062 66.93687793676853914
0.635462587779429100010 160.39248227567222216 0.635462587779429100010 72.35544140400061508
0.800000000000011368684 177.57237320352669485 0.800000000000011368684 78.17878737769542852
1.007140329435344483500 196.10439623440399259 1.007140329435344483500 84.49393302064267175
1.267914553968893187630 216.08850284105068340 1.267914553968893187630 91.36169093486920190
1.596209851975103788391 237.64202216865544415 1.596209851975103788391 98.82802361829205040
2.009509145207672986544 260.87301048242687784 2.009509145207672986544 106.84131263397250677
2.529822128134725289783 285.85844620156996143 2.529822128134725289783 115.25084482059358493
3.184857364427998049905 312.61670933881532619 3.184857364427998049905 123.79827630744475186
4.009497869018190385759 341.08222723900769324 4.009497869018190385759 132.14239477696736458
5.009497869018204596614 370.07773657767876330 5.009497869018204596614 139.66028984124685053
6.009497869018190385759 394.67524038113577944 6.009497869018190385759 145.18198401826026611
7.009497869018190385759 415.97536423990317189 7.009497869018190385759 149.23590137176501003
8.009497869018204596614 434.68843075617132854 8.009497869018204596614 152.16154371998942452
9.009497869018190385759 451.31354514915386744 9.009497869018190385759 154.18572495959489288
10.009497869018190385759 466.22208728666953448 10.009497869018190385759 155.49873325068375607
11.009497869018204596614 479.68723315525630824 11.009497869018204596614 156.42842332064975608
12.009497869018190385759 491.92371294899049872 12.009497869018190385759 156.91499135737706183
13.009497869018190385759 503.10084989120144883 13.009497869018190385759 157.04370607594134412
14.009497869018204596614 513.35566788139385608 14.009497869018204596614 156.87765744007037938
15.009497869018190385759 522.80092252196186564 15.009497869018190385759 156.42464470308604518
16.009497869018190385759 531.53092689050663466 16.009497869018190385759 155.70138913185397200
17.009497869018190385759 539.61568142228043143 17.009497869018190385759 154.59938350681116503
18.009497869018204596614 547.11920716386089225 18.009497869018204596614 153.32421552393708453
19.009497869018190385759 554.09465003737670941 19.009497869018190385759 151.64880383078795489
20.009497869018190385759 560.58555723936592585 20.009497869018190385759 150.00000213750209355
21.009497869018204596614 566.63051509495539904 21.009497869018204596614 148.23972189760385731
22.009497869018190385759 572.27210592663675470 22.009497869018190385759 146.39463461265359001
23.009497869018190385759 577.55417248488242876 23.009497869018190385759 144.41931565032493268
24.009497869018204596614 582.50616684299961889 24.009497869018204596614 142.43807171189237692
25.009497869018190385759 587.15473594431261972 25.009497869018190385759 140.34964888155721496
26.009497869018190385759 591.52402389011797368 26.009497869018190385759 137.94809275516442426
27.009497869018204596614 595.63376341408468306 27.009497869018204596614 135.49312570727394700
28.009497869018190385759 599.48964375260084125 28.009497869018190385759 132.93862873711415773
29.009497869018190385759 603.10135980159259361 29.009497869018190385759 130.35001833840843233
30.009497869018190385759 606.48808687946905138 30.009497869018190385759 127.75592766952212287
31.009497869018190385759 609.65791228286047954 31.009497869018190385759 125.09142033182735076
32.009497869018190385759 612.63843598484197628 32.009497869018190385759 122.41606190194329429
33.009497869018190385759 615.45180082354352180 33.009497869018190385759 119.78553712139992626
34.009497869018190385759 618.10908565849240404 34.009497869018190385759 117.13314432821995581
35.009497869018190385759 620.61733049434610621 35.009497869018190385759 114.37434249487189675
36.009497869018190385759 622.98604452809763643 36.009497869018190385759 111.80734753783407598
37.009497869018190385759 625.22073386391446093 37.009497869018190385759 109.25803388727204890
38.009497869018190385759 627.32650076554978114 38.009497869018190385759 106.68646314227083849
39.009497869018190385759 629.30803056078252666 39.009497869018190385759 104.06273618004621540
40.009497869018190385759 631.17674081991413004 40.009497869018190385759 101.33537525215618302
41.009497869018190385759 632.93986870157550584 41.009497869018190385759 98.81471464958954698
42.009497869018190385759 634.60403383693437718 42.009497869018190385759 96.22927624239387967
43.009497869018190385759 636.17570064330175228 43.009497869018190385759 93.72930941935993587
44.009497869018190385759 637.66059023539332884 44.009497869018190385759 91.20997474712561370
46.009497869018190385759 640.39037327559481128 46.009497869018190385759 86.35023423829740352
48.009497869018190385759 642.83024785958514258 48.009497869018190385759 81.70489543614621653
50.009497869018218807469 645.01156711721205284 50.009497869018218807469 77.20770614991184289
52.009497869018190385759 646.96435401761345929 52.009497869018190385759 72.88173252530707202
54.009497869018190385759 648.71323479708314608 54.009497869018190385759 68.76194034110669406
56.009497869018190385759 650.28099787585313152 56.009497869018190385759 64.81288381867771875
58.009497869018190385759 651.68686152620591656 58.009497869018190385759 61.05147680227054252
60.009497869018190385759 652.94900177949534736 60.009497869018190385759 57.47298503537425773
62.009497869018190385759 654.08200220235664801 62.009497869018190385759 54.06370658382520134
64.009497869018190385759 655.10082533081731526 64.009497869018190385759 50.82291124650822667
66.009497869018218807469 656.01665084762714741 66.009497869018218807469 47.78030614999079972
68.009497869018190385759 656.84052129745998627 68.009497869018190385759 44.90406304742410981
70.009497869018190385759 657.58215491528926577 70.009497869018190385759 42.14533366311795959
72.009497869018190385759 658.24951239674896897 72.009497869018190385759 39.57804115500670861
74.009497869018218807469 658.85082295479799086 74.009497869018218807469 37.13170323019147645
76.009497869018190385759 659.39280107305830825 76.009497869018190385759 34.81832173713316081
78.009497869018190385759 659.88137542693061732 78.009497869018190385759 32.62666414240888457
80.009497869018218807469 660.32205893149591702 80.009497869018218807469 30.56960471607982655
82.009497869018190385759 660.71945987665230859 82.009497869018190385759 28.61543405836815879
84.009497869018190385759 661.07771256063074361 84.009497869018190385759 26.70971978372701727
86.009497869018218807469 661.40102188168805242 86.009497869018218807469 24.96468761381265367
88.009497869018190385759 661.69279503611551263 88.009497869018190385759 23.26384616290023999
91.009497869018190385759 662.07792294783268972 91.009497869018190385759 20.91067982217012400
94.009497869018190385759 662.40851548660896242 94.009497869018190385759 18.72192982939252914
97.009497869018190385759 662.69159897989811725 97.009497869018190385759 16.74432934159206354
99.504748934509137825444 662.89586027946074864 99.504748934509137825444 14.23083233046658691
nan nan nan nan

