Time Pressure difference Time.1 Pressure.1 difference.1
(hr) (psi) (hr) (psi)
0.000200000000006639311 0.37805724870044066 0.000200000000006639311 0.30303287575809257
0.000399999999999067768 0.70695130449662613 0.000399999999999067768 0.64595750903980620
0.000600000000019917934 1.00953071523068383 0.000600000000019917934 0.88676188664580025
0.000799999999998135536 1.29331328790630962 0.000799999999998135536 1.11024352028910478
0.001007140329448930061 1.57176818300756937 0.001007140329448930061 1.32671573039262025
0.001267914553963578328 1.90428212683312115 0.001267914553963578328 1.58067025828457663
0.001596209851982166583 2.29968424219368073 0.001596209851982166583 1.87524000163517668
0.002009509145210586212 2.76784788648620950 0.002009509145210586212 2.21508283460331867
0.002529822128153114136 3.31974651612026284 0.002529822128153114136 2.60510429484338513
0.003184857364431081805 3.96751157031620227 0.003184857364431081805 3.05047824165807269
0.004009497869020606231 4.72449772102121823 0.004009497869020606231 3.55669374880248412
0.005047658755856332391 5.60536217142260096 0.005047658755856332391 4.12963159397938107
0.006354625877790454069 6.62616487675492305 0.006354625877790454069 4.77566716463792318
0.007999999999995566213 7.80449487585441126 0.007999999999995566213 5.50179194091825341
0.010071403294347192059 9.15962595439209970 0.010071403294347192059 6.31575784347356972
0.012679145539706837553 10.71270874400181583 0.012679145539706837553 7.22628385485268510
0.015962098519764822413 12.48702053991074834 0.015962098519764822413 8.24337539111823681
0.020095091452077440408 14.50830305973506640 0.020095091452077440408 9.37869248282401635
0.025298221281346400247 16.80517980439637071 0.025298221281346400247 10.64563067634416527
0.031848573644282396344 19.40952825882938626 0.031848573644282396344 12.05855415167123823
0.040094978690177640601 22.35654027213315942 0.040094978690177640601 13.63078075024303537
0.050476587558421215363 25.68416136539678973 0.050476587558421215363 15.37154312200131301
0.063546258777947173257 29.43174547545027764 0.063546258777947173257 17.28312013631775912
0.079999999999998294697 33.63816560588311688 0.079999999999998294697 19.35959700858597898
0.100714032943528764008 38.33988802503530735 0.100714032943528764008 21.58751379950425431
0.126791455396883634421 43.56936934768276615 0.126791455396883634421 23.94940756304776031
0.159620985197506115583 49.35474499377824031 0.159620985197506115583 26.42974838654276937
0.200950914520774404082 55.72093528851326738 0.200950914520774404082 29.01574228031733682
0.252982212813464002465 62.68967353726910829 0.252982212813464002465 31.70337545802252421
0.318485736442795541734 70.28334606623047875 0.318485736442795541734 34.50591995597509509
0.400949786901833249431 78.52886287684313515 0.400949786901833249431 37.43429472960841764
0.504765875584169521062 87.45239555722008618 0.504765875584169521062 40.52031741322777236
0.635462587779429100010 97.09377689597550898 0.635462587779429100010 43.80045115091675711
0.800000000000011368684 107.49364397939241655 0.800000000000011368684 47.32562045271863127
1.007140329435344483500 118.71202581413754729 1.007140329435344483500 51.14850125998770380
1.267914553968893187630 130.80942814123801554 1.267914553968893187630 55.30590655254624721
1.596209851975103788391 143.85687629607568283 1.596209851975103788391 59.82565978231057358
2.009509145207672986544 157.91978226528183882 2.009509145207672986544 64.67651366805694124
2.529822128134725289783 173.04474502503063604 2.529822128134725289783 69.76723382116200867
3.184857364427998049905 189.24289093754373425 3.184857364427998049905 74.94143147708194874
4.009497869018190385759 206.47452551926551223 4.009497869018190385759 79.99255335997021632
5.009497869018204596614 224.02699103866174823 5.009497869018204596614 84.54351993734340454
6.009497869018190385759 238.91711875914907637 6.009497869018190385759 87.88608397092008317
7.009497869018190385759 251.81117367030927312 7.009497869018190385759 90.34012758625239314
8.009497869018204596614 263.13915039085952685 8.009497869018204596614 92.11116860641502058
9.009497869018190385759 273.20318284948780274 9.009497869018190385759 93.33650908925309864
10.009497869018190385759 282.22808628390367858 10.009497869018190385759 94.13134019522995288
11.009497869018204596614 290.37922809732901896 11.009497869018204596614 94.69412916734984265
12.009497869018190385759 297.78659546410466419 12.009497869018190385759 94.98867369794398030
13.009497869018190385759 304.55268839567713712 13.009497869018190385759 95.06659130349626707
14.009497869018204596614 310.76045447000757349 14.009497869018204596614 94.96607356740047123
15.009497869018190385759 316.47815042299367860 15.009497869018190385759 94.69184177678452841
16.009497869018190385759 321.76286878656088675 16.009497869018190385759 94.25401817011895389
17.009497869018190385759 326.65698440612959530 17.009497869018190385759 93.58691777502615139
18.009497869018204596614 331.19925249718670557 18.009497869018204596614 92.81499334392178469
19.009497869018190385759 335.42184500590360585 19.009497869018190385759 91.80078091428971732
20.009497869018190385759 339.35112327867966542 20.009497869018190385759 90.80267687922366804
21.009497869018204596614 343.01044559259838707 21.009497869018204596614 89.73708917547256192
22.009497869018190385759 346.42558920642562725 22.009497869018190385759 88.62016342772676580
23.009497869018190385759 349.62309438048066568 23.009497869018190385759 87.42440178163482756
24.009497869018204596614 352.62078996181583079 24.009497869018204596614 86.22505344432281049
25.009497869018190385759 355.43480670876448357 25.009497869018190385759 84.96082423933731320
26.009497869018190385759 358.07976028130889290 26.009497869018190385759 83.50703942703934501
27.009497869018204596614 360.56759591287396916 27.009497869018204596614 82.02092225089157296
28.009497869018190385759 362.90175758936709371 28.009497869018190385759 80.47455451979151064
29.009497869018190385759 365.08811412738549507 29.009497869018190385759 78.90753618478903775
30.009497869018190385759 367.13827332837428230 30.009497869018190385759 77.33720036181773594
31.009497869018190385759 369.05713084681514147 31.009497869018190385759 75.72423772595570313
32.009497869018190385759 370.86139435871700698 32.009497869018190385759 74.10470636873489525
33.009497869018190385759 372.56446805706150371 33.009497869018190385759 72.51231511362335880
34.009497869018190385759 374.17305854243187468 34.009497869018190385759 70.90668603146424687
35.009497869018190385759 375.69142748988844005 35.009497869018190385759 69.23664211228030751
36.009497869018190385759 377.12533130296213812 36.009497869018190385759 67.68270871019387869
37.009497869018190385759 378.47810310825593660 37.009497869018190385759 66.13947870767972859
38.009497869018190385759 379.75283156710531784 38.009497869018190385759 64.58277534699338673
39.009497869018190385759 380.95235294816603755 39.009497869018190385759 62.99449915915841558
40.009497869018190385759 382.08357889098482474 40.009497869018190385759 61.34348802889722663
41.009497869018190385759 383.15089041801064695 41.009497869018190385759 59.81760318252744923
42.009497869018190385759 384.15829473071948996 42.009497869018190385759 58.25250501629863464
43.009497869018190385759 385.10970507169770372 43.009497869018190385759 56.73914717359247106
44.009497869018190385759 386.00858472443536584 44.009497869018190385759 55.21406498070145830
46.009497869018190385759 387.66106208321957638 46.009497869018190385759 52.27221537502283866
48.009497869018190385759 389.13804301867867252 48.009497869018190385759 49.46015409345306324
50.009497869018218807469 390.45850718466681428 50.009497869018218807469 46.73777529476268455
52.009497869018190385759 391.64062902069576921 52.009497869018190385759 44.11904209725946657
54.009497869018190385759 392.69931604773256595 54.009497869018190385759 41.62512107605454759
56.009497869018190385759 393.64836326264014588 56.009497869018190385759 39.23455508756075716
58.009497869018190385759 394.49940446904105329 58.009497869018190385759 36.95758294719387038
60.009497869018190385759 395.26344254879148821 60.009497869018190385759 34.79133876723324903
62.009497869018190385759 395.94930568102529378 62.009497869018190385759 32.72752806579384810
64.009497869018190385759 396.56605145444132177 64.009497869018190385759 30.76570881477588060
66.009497869018218807469 397.12044750307859431 66.009497869018218807469 28.92386425802118666
68.009497869018190385759 397.61917844428177204 68.009497869018190385759 27.18272712904268928
70.009497869018190385759 398.06812722296774609 70.009497869018190385759 25.51272706697107040
72.009497869018190385759 398.47211285555704308 72.009497869018190385759 23.95861354199402626
74.009497869018218807469 398.83611690574730346 74.009497869018218807469 22.47772001560085897
76.009497869018190385759 399.16420399405870967 76.009497869018190385759 21.07731182080636145
78.009497869018190385759 399.45996305108508295 78.009497869018190385759 19.75058933035454345
80.009497869018218807469 399.72673132642398741 80.009497869018218807469 18.50534599869715180
82.009497869018190385759 399.96729845375949708 82.009497869018190385759 17.32238650356065790
84.009497869018190385759 400.18416713536510088 84.009497869018190385759 16.16876013663742384
86.009497869018218807469 400.37988281132282964 86.009497869018218807469 15.11240286989996662
88.009497869018190385759 400.55650803189598719 88.009497869018190385759 14.08279650663860494
91.009497869018190385759 400.78964566407267966 91.009497869018190385759 12.65830450773509241
94.009497869018190385759 400.98977024440205241 94.009497869018190385759 11.33334213752524278
97.009497869018190385759 401.16113516843330444 97.009497869018190385759 10.13619936731827309
99.504748934509137825444 401.28478498522542850 99.504748934509137825444 8.61465100941288320
nan nan nan nan

