Time Pressure difference Time.1 Pressure.1 difference.1
(hr) (psi) (hr) (psi)
0.000200000000006639311 0.27222906858540019 0.000200000000006639311 0.21820599340960259
0.000399999999999067768 0.50905701668173264 0.000399999999999067768 0.46513699085555105
0.000600000000019917934 0.72693648186960846 0.000600000000019917934 0.63853388154421342
0.000799999999998135536 0.93128083898962621 0.000799999999998135536 0.79945712050283613
0.001007140329448930061 1.13178887579366405 0.001007140329448930061 0.95533305816485170
0.001267914553963578328 1.37122340992955882 0.001267914553963578328 1.13819902576292731
0.001596209851982166583 1.65594206021681223 0.001596209851982166583 1.35031094040396704
0.002009509145210586212 1.99305437130038299 0.002009509145210586212 1.59502281460386297
0.002529822128153114136 2.39046204015289643 0.002529822128153114136 1.87586699683934377
0.003184857364431081805 2.85690059667336138 0.003184857364431081805 2.19656904693979094
0.004009497869020606231 3.40198638843332635 0.004009497869020606231 2.56108150236053644
0.005047658755856332391 4.03627368144795007 0.005047658755856332391 2.97363895625402908
0.006354625877790454069 4.77132682653991758 0.006354625877790454069 3.43883215722546609
0.007999999999995566213 5.61981122736477889 0.007999999999995566213 3.96169548600191002
0.010071403294347192059 6.59560542940572869 0.010071403294347192059 4.54781089649754211
0.012679145539706837553 7.71393944549670252 0.012679145539706837553 5.20345669842983405
0.015962098519764822413 8.99157464291915609 0.015962098519764822413 5.93583752841110535
0.020095091452077440408 10.44704695461585864 0.020095091452077440408 6.75334946737419983
0.025298221281346400247 12.10096740979554397 0.025298221281346400247 7.66563829548907716
0.031848573644282396344 13.97629014586057039 0.031848573644282396344 8.68304728048518193
0.040094978690177640601 16.09835588656365957 0.040094978690177640601 9.81516624925419379
0.050476587558421215363 18.49448820233912372 0.050476587558421215363 11.06864338987571550
0.063546258777947173257 21.19302482670545018 0.063546258777947173257 12.44511965616987936
0.079999999999998294697 24.22195718582007018 0.079999999999998294697 13.94033596750850634
0.100714032943528764008 27.60754367916906915 0.100714032943528764008 15.54460017607028277
0.126791455396883634421 31.37315546030195534 0.126791455396883634421 17.24533767431247711
0.159620985197506115583 35.53905210417548943 0.159620985197506115583 19.03136578110170163
0.200950914520774404082 40.12317808067898284 0.200950914520774404082 20.89347188140714096
0.252982212813464002465 45.14118297066707441 0.252982212813464002465 22.82876575338270442
0.318485736442795541734 50.60918657807756915 0.318485736442795541734 24.84680424085868111
0.400949786901833249431 56.54656608627194458 0.400949786901833249431 26.95544979609003633
0.504765875584169521062 62.97216696661705271 0.504765875584169521062 29.17761345961705288
0.635462587779429100010 69.91467176119046201 0.635462587779429100010 31.53955138123103552
0.800000000000011368684 77.40334216563984171 0.800000000000011368684 34.07793295950826007
1.007140329435344483500 85.48140348679149270 1.007140329435344483500 36.83068875258783237
1.267914553968893187630 94.19242431532977378 1.267914553968893187630 39.82432681776349881
1.596209851975103788391 103.58754812479853058 1.596209851975103788391 43.07888209002474156
2.009509145207672986544 113.71387636413480493 2.009509145207672986544 46.57185422506493921
2.529822128134725289783 124.60496372888945871 2.529822128134725289783 50.23754774231002074
3.184857364427998049905 136.26882201948359352 3.184857364427998049905 53.96335121093746068
4.009497869018190385759 148.67686828367001795 4.009497869018190385759 57.60053105662680650
5.009497869018204596614 161.31593645693689609 5.009497869018204596614 60.87756223849221016
6.009497869018190385759 172.03792529434124958 6.009497869018190385759 63.28445457206216673
7.009497869018190385759 181.32259466867574815 7.009497869018190385759 65.05154675179501567
8.009497869018204596614 189.47957238089520615 8.009497869018204596614 66.32682674973898429
9.009497869018190385759 196.72641711629779593 9.009497869018190385759 67.20916216187470127
10.009497869018190385759 203.22501240700981384 10.009497869018190385759 67.78149910927238864
11.009497869018204596614 209.09443496511170224 11.009497869018204596614 68.18674862694989258
12.009497869018190385759 214.42828513161126125 12.009497869018190385759 68.39884238654897786
13.009497869018190385759 219.30037046539550261 13.009497869018190385759 68.45494880233340496
14.009497869018204596614 223.77041933291522469 14.009497869018204596614 68.38256862772298916
15.009497869018190385759 227.88758161213723952 15.009497869018190385759 68.18510153724263034
16.009497869018190385759 231.69296813175932925 16.009497869018190385759 67.86983628824404491
17.009497869018190385759 235.21709190201966067 17.009497869018190385759 67.38947486194332726
18.009497869018204596614 238.48785953296501816 18.009497869018204596614 66.83363240787001303
19.009497869018190385759 241.52843719577955994 19.009497869018190385759 66.10332474675372794
20.009497869018190385759 244.35780700177485869 20.009497869018190385759 65.38461631634706350
21.009497869018204596614 246.99278863113437410 21.009497869018204596614 64.61731467331449608
22.009497869018190385759 249.45194360904679343 22.009497869018190385759 63.81304585679772146
23.009497869018190385759 251.75438287802566606 23.009497869018190385759 62.95200938603907304
24.009497869018204596614 253.91294452130753712 24.009497869018204596614 62.08839023338898500
25.009497869018190385759 255.93924387316192792 25.009497869018190385759 61.17805207657621480
26.009497869018190385759 257.84380528543607625 26.009497869018190385759 60.13121991891782869
27.009497869018204596614 259.63523020613945391 27.009497869018204596614 59.06110607752966501
28.009497869018190385759 261.31599855882598149 28.009497869018190385759 57.94760739822925899
29.009497869018190385759 262.89033632377112326 29.009497869018190385759 56.81923876289597786
30.009497869018190385759 264.36660197310192189 30.009497869018190385759 55.68848129184296880
31.009497869018190385759 265.74832073868270754 31.009497869018190385759 54.52702937541192796
32.009497869018190385759 267.04752337800800888 32.009497869018190385759 53.36084749571887187
33.009497869018190385759 268.27386189744208878 33.009497869018190385759 52.21420848881534482
34.009497869018190385759 269.43216554344536462 34.009497869018190385759 51.05803727127536007
35.009497869018190385759 270.52550303599701920 35.009497869018190385759 49.85548262596979896
36.009497869018190385759 271.55801940968359531 36.009497869018190385759 48.73653610623536281
37.009497869018190385759 272.53211476119349754 37.009497869018190385759 47.62529682265704167
38.009497869018190385759 273.45001315421393429 38.009497869018190385759 46.50435572868217093
39.009497869018190385759 274.31375691111031756 39.009497869018190385759 45.36067987335348306
40.009497869018190385759 275.12832292150102376 40.009497869018190385759 44.17183023811936238
41.009497869018190385759 275.89686584427653315 41.009497869018190385759 43.07308074469288073
42.009497869018190385759 276.62227115968931912 42.009497869018190385759 41.94609477232553729
43.009497869018190385759 277.30735669067001936 43.009497869018190385759 40.85636564433638540
44.009497869018190385759 277.95461625645350523 44.009497869018190385759 39.75819412054192981
46.009497869018190385759 279.14452168423360945 46.009497869018190385759 37.63984569361681309
48.009497869018190385759 280.20805675930637335 48.009497869018190385759 35.61495442088425278
50.009497869018218807469 281.15888823057963464 50.009497869018218807469 33.65464114226926284
52.009497869018190385759 282.01010303331867135 52.009497869018190385759 31.76896033154411114
54.009497869018190385759 282.77243568077977898 54.009497869018190385759 29.97315348202086227
56.009497869018190385759 283.45581958691030877 56.009497869018190385759 28.25176986968003234
58.009497869018190385759 284.06863194732056854 58.009497869018190385759 26.61218219586151434
60.009497869018190385759 284.61879564747232507 60.009497869018190385759 25.05232681029134056
62.009497869018190385759 285.11266762666832619 62.009497869018190385759 23.56623107500072578
64.009497869018190385759 285.55677001599730147 64.009497869018190385759 22.15357669719589495
66.009497869018218807469 285.95597601050411640 66.009497869018218807469 20.82731293717547771
68.009497869018190385759 286.31509902709791504 68.009497869018190385759 19.57356594374897441
70.009497869018190385759 286.63837521948511267 70.009497869018190385759 18.37104287879500575
72.009497869018190385759 286.92927463448029357 72.009497869018190385759 17.25196665731061785
74.009497869018218807469 287.19138436491192579 74.009497869018218807469 16.18561422854500265
76.009497869018190385759 287.42763123697409355 76.009497869018190385759 15.17721716746829941
78.009497869018190385759 287.64059954507229122 78.009497869018190385759 14.22187924156284922
80.009497869018218807469 287.83269235475466985 80.009497869018218807469 13.32521231213736002
82.009497869018190385759 288.00591840777155994 82.009497869018190385759 12.47339433313483781
84.009497869018190385759 288.16207983412112981 84.009497869018190385759 11.64269836726562168
86.009497869018218807469 288.30300953817175014 86.009497869018218807469 10.88204331884141318
88.009497869018190385759 288.43019270805035603 88.009497869018190385759 10.14065089152061638
91.009497869018190385759 288.59806897726042507 91.009497869018190385759 9.11491171735620753
94.009497869018190385759 288.74217341723982599 94.009497869018190385759 8.16084120768392296
97.009497869018190385759 288.86556878610946342 97.009497869018190385759 7.29881022582218186
99.504748934509137825444 288.95460576284187937 99.504748934509137825444 6.20318332353671753
nan nan nan nan

