Time Pressure difference Time.1 Pressure.1 difference.1
(hr) (psi) (hr) (psi)
0.000200000000006639311 0.05987647032824658 0.000200000000006639311 0.04799415711822461
0.000399999999999067768 0.11196650494790027 0.000399999999999067768 0.10230634581477593
0.000600000000019917934 0.15988884255955582 0.000600000000019917934 0.14044479236010832
0.000799999999998135536 0.20483414872917610 0.000799999999998135536 0.17583967356328364
0.001007140329448930061 0.24893566066049899 0.001007140329448930061 0.21012440665518478
0.001267914553963578328 0.30159901087964719 0.001267914553963578328 0.25034556576882799
0.001596209851982166583 0.36422255032901751 0.001596209851982166583 0.29699933727555283
0.002009509145210586212 0.43837001517092822 0.002009509145210586212 0.35082343236811309
0.002529822128153114136 0.52577937456048363 0.002529822128153114136 0.41259478702860247
0.003184857364431081805 0.62837199824529177 0.003184857364431081805 0.48313283385376471
0.004009497869020606231 0.74826299080630720 0.004009497869020606231 0.56330692890794409
0.005047658755856332391 0.88777375090671029 0.005047658755856332391 0.65404846608144884
0.006354625877790454069 1.04944784420059567 0.006354625877790454069 0.75636717524652197
0.007999999999995566213 1.23607101164545008 0.007999999999995566213 0.87137036265003642
0.010071403294347192059 1.45069582334755176 0.010071403294347192059 1.00028577263117313
0.012679145539706837553 1.69667210310157657 0.012679145539706837553 1.14449431218661291
0.015962098519764822413 1.97768649435050503 0.015962098519764822413 1.30558063284745551
0.020095091452077440408 2.29781595421218388 0.020095091452077440408 1.48539144295186998
0.025298221281346400247 2.66159385483994093 0.025298221281346400247 1.68604832074695810
0.031848573644282396344 3.07406893233761913 0.031848573644282396344 1.90982625606579481
0.040094978690177640601 3.54081484973011396 0.040094978690177640601 2.15883452029631862
0.050476587558421215363 4.06784139488788909 0.050476587558421215363 2.43453537475527293
0.063546258777947173257 4.66138141968457376 0.063546258777947173257 2.73728974534682790
0.079999999999998294697 5.32759160608830218 0.079999999999998294697 3.06616085218857171
0.100714032943528764008 6.07224745884537143 0.100714032943528764008 3.41901691852185241
0.126791455396883634421 6.90048943628124789 0.126791455396883634421 3.79309217388970055
0.159620985197506115583 7.81677360859102777 0.159620985197506115583 4.18592700044692112
0.200950914520774404082 8.82504684127466099 0.200950914520774404082 4.59549509412024104
0.252982212813464002465 9.92875124163009914 0.252982212813464002465 5.02116075394095240
0.318485736442795541734 11.13143234198125597 0.318485736442795541734 5.46502599671060540
0.400949786901833249431 12.43735213150738339 0.400949786901833249431 5.92882015975381904
0.504765875584169521062 13.85065564994645904 0.504765875584169521062 6.41758250006922371
0.635462587779429100010 15.37765158941785160 0.635462587779429100010 6.93708802758534215
0.800000000000011368684 17.02477602620211528 0.800000000000011368684 7.49540213431639479
1.007140329435344483500 18.80153631678789594 1.007140329435344483500 8.10086760287098073
1.267914553968893187630 20.71751532255335349 1.267914553968893187630 8.75931484994286613
1.596209851975103788391 22.78396199164366465 1.596209851975103788391 9.47515053642487892
2.009509145207672986544 25.01123623354371617 2.009509145207672986544 10.24342573748231366
2.529822128134725289783 27.40671836492197500 2.529822128134725289783 11.04969080777151547
3.184857364427998049905 29.97217057206033175 3.184857364427998049905 11.86917699268701121
4.009497869018190385759 32.70130606750798563 4.009497869018190385759 12.66917051373377312
5.009497869018204596614 35.48125456597589533 5.009497869018204596614 13.38994975066580650
6.009497869018190385759 37.83954367087812187 6.009497869018190385759 13.91934294935382610
7.009497869018190385759 39.88169601408213794 7.009497869018190385759 14.30801284054826183
8.009497869018204596614 41.67581387405878957 8.009497869018204596614 14.58850920838248832
9.009497869018190385759 43.26974903325220367 9.009497869018190385759 14.78257786680620001
10.009497869018190385759 44.69910758824256902 10.009497869018190385759 14.90846271968651315
11.009497869018204596614 45.99008032480718100 11.009497869018204596614 14.99759688469997343
12.009497869018190385759 47.16325453022652425 12.009497869018190385759 15.04424666302611868
13.009497869018190385759 48.23486409213303006 13.009497869018190385759 15.05658720460530198
14.009497869018204596614 49.21804619598647434 14.009497869018204596614 15.04066726850173197
15.009497869018190385759 50.12361130087928984 15.009497869018190385759 14.99723460921449103
16.009497869018190385759 50.96060168626932096 16.009497869018190385759 14.92789238053449452
17.009497869018190385759 51.73572865364115358 17.009497869018190385759 14.82223743766528479
18.009497869018204596614 52.45513022975701745 18.009497869018204596614 14.69998052960823820
19.009497869018190385759 53.12390178730701962 19.009497869018190385759 14.53935020005325107
20.009497869018190385759 53.74621841982771997 20.009497869018190385759 14.38127110794334484
21.009497869018204596614 54.32577959661779232 21.009497869018204596614 14.21250399464206460
22.009497869018190385759 54.86666790378011882 22.009497869018190385759 14.03560599407827247
23.009497869018190385759 55.37308677112585542 23.009497869018190385759 13.84622201329759683
24.009497869018204596614 55.84785992028758983 24.009497869018204596614 13.65626997460729619
25.009497869018190385759 56.29354213066987711 25.009497869018190385759 13.45604214472008842
26.009497869018190385759 56.71244822134910635 26.009497869018190385759 13.22579261643716997
27.009497869018204596614 57.10647007091558436 27.009497869018204596614 12.99042230861266312
28.009497869018190385759 57.47615313570085505 28.009497869018190385759 12.74550955562075671
29.009497869018190385759 57.82242691520286115 29.009497869018190385759 12.49732617291318171
30.009497869018190385759 58.14712984574619981 30.009497869018190385759 12.24861736853835126
31.009497869018190385759 58.45103729802229253 31.009497869018190385759 11.99315735622871060
32.009497869018190385759 58.73679542329588088 32.009497869018190385759 11.73665699394328144
33.009497869018190385759 59.00652716925836216 33.009497869018190385759 11.48445506403611205
34.009497869018190385759 59.26129472311075830 34.009497869018190385759 11.23015653537002834
35.009497869018190385759 59.50177304628067532 35.009497869018190385759 10.96565602514936799
36.009497869018190385759 59.72887383435495678 36.009497869018190385759 10.71954502592389069
37.009497869018190385759 59.94312498583796156 37.009497869018190385759 10.47512922442072991
38.009497869018190385759 60.14501568097801254 38.009497869018190385759 10.22857952088661548
39.009497869018190385759 60.33499512622886840 39.009497869018190385759 9.97702933275805393
40.009497869018190385759 60.51415798273423974 40.009497869018190385759 9.71554322372957735
41.009497869018190385759 60.68319811408639453 41.009497869018190385759 9.47387453719587747
42.009497869018190385759 60.84275017834599453 42.009497869018190385759 9.22599526961635874
43.009497869018190385759 60.99343395242358667 43.009497869018190385759 8.98631060207910259
44.009497869018190385759 61.13579794898976871 44.009497869018190385759 8.74476903930078286
46.009497869018190385759 61.39751627837362946 46.009497869018190385759 8.27884074079551269
48.009497869018190385759 61.63143959411853245 48.009497869018190385759 7.83346823579551277
50.009497869018218807469 61.84057388191776283 50.009497869018218807469 7.40229958627917206
52.009497869018190385759 62.02779759812125349 52.009497869018190385759 6.98754626218105646
54.009497869018190385759 62.19547178656538478 54.009497869018190385759 6.59256061241379587
56.009497869018190385759 62.34578129021556947 56.009497869018190385759 6.21394426801146516
58.009497869018190385759 62.48056866360502681 58.009497869018190385759 5.85331884614856879
60.009497869018190385759 62.60157653627268104 60.009497869018190385759 5.51023044932239259
62.009497869018190385759 62.71020310970197897 62.009497869018190385759 5.18336540268558199
64.009497869018190385759 62.80788291911962062 64.009497869018190385759 4.87265369810446725
66.009497869018218807469 62.89568781816713994 66.009497869018218807469 4.58094351047849369
68.009497869018190385759 62.97467651235402286 68.009497869018190385759 4.30518330220565648
70.009497869018190385759 63.04578073881258149 70.009497869018190385759 4.04068973804698306
72.009497869018190385759 63.10976373034605302 72.009497869018190385759 3.79455021107087731
74.009497869018218807469 63.16741446389367098 74.009497869018218807469 3.56000722162370886
76.009497869018190385759 63.21937669150836570 76.009497869018190385759 3.33821144859916608
78.009497869018190385759 63.26621882577038036 78.009497869018190385759 3.12808597129003818
80.009497869018218807469 63.30846941818133189 80.009497869018218807469 2.93086511213251377
82.009497869018190385759 63.34657028917737165 82.009497869018190385759 2.74350872800408219
84.009497869018190385759 63.38091781517753276 84.009497869018190385759 2.56079810635509819
86.009497869018218807469 63.41191514138815677 86.009497869018218807469 2.39349290388839231
88.009497869018190385759 63.43988893322846678 88.009497869018190385759 2.23042449276412524
91.009497869018190385759 63.47681312543323884 91.009497869018190385759 2.00481434192489472
94.009497869018190385759 63.50850873115760464 94.009497869018190385759 1.79496763135758908
97.009497869018190385759 63.53564940052534382 97.009497869018190385759 1.60536490900436735
99.504748934509137825444 63.55523298108543173 99.504748934509137825444 1.36438303279835726
nan nan nan nan

