Time Pressure difference Time.1 Pressure.1 difference.1
(hr) (psi) (hr) (psi)
0.000200000000006639311 0.04386299570557599 0.000200000000006639311 0.03515851044707152
0.000399999999999067768 0.08202197455485719 0.000399999999999067768 0.07494534635268468
0.000600000000019917934 0.11712787303781415 0.000600000000019917934 0.10288397579868401
0.000799999999998135536 0.15005292290625691 0.000799999999998135536 0.12881278412194036
0.001007140329448930061 0.18235984443734229 0.001007140329448930061 0.15392834441019351
0.001267914553963578328 0.22093881029555548 0.001267914553963578328 0.18339268190042052
0.001596209851982166583 0.26681419384567562 0.001596209851982166583 0.21756928195767244
0.002009509145210586212 0.32113152274149392 0.002009509145210586212 0.25699856092082701
0.002529822128153114136 0.38516396043384266 0.002529822128153114136 0.30224966956746463
0.003184857364431081805 0.46031902197038815 0.003184857364431081805 0.35392288991612997
0.004009497869020606231 0.54814614442787613 0.004009497869020606231 0.41265507582791250
0.005047658755856332391 0.65034588729212495 0.005047658755856332391 0.47912852747827073
0.006354625877790454069 0.76878156028648281 0.006354625877790454069 0.55408293070384751
0.007999999999995566213 0.90549388062399250 0.007999999999995566213 0.63832945170874755
0.010071403294347192059 1.06271903338250895 0.010071403294347192059 0.73276748460190577
0.012679145539706837553 1.24291095924882944 0.012679145539706837553 0.83840862404368166
0.015962098519764822413 1.44877033888467244 0.015962098519764822413 0.95641371941150810
0.020095091452077440408 1.68328378041125082 0.020095091452077440408 1.08813559192985831
0.025298221281346400247 1.94977224249902670 0.025298221281346400247 1.23512842101230635
0.031848573644282396344 2.25193421787523240 0.031848573644282396344 1.39905876897843084
0.040094978690177640601 2.59385273875578104 0.040094978690177640601 1.58147179975195451
0.050476587558421215363 2.97993032416205805 0.050476587558421215363 1.78343870476258348
0.063546258777947173257 3.41473290046660694 0.063546258777947173257 2.00522388321918754
0.079999999999998294697 3.90277059515771008 0.079999999999998294697 2.24614108939395374
0.100714032943528764008 4.44827430124719037 0.100714032943528764008 2.50462867287065905
0.126791455396883634421 5.05500970332230981 0.126791455396883634421 2.77866054598896683
0.159620985197506115583 5.72624113187482298 0.159620985197506115583 3.06643489567623329
0.200950914520774404082 6.46485989535236882 0.200950914520774404082 3.36646733639040896
0.252982212813464002465 7.27338753747321132 0.252982212813464002465 3.67829218021255810
0.318485736442795541734 8.15442136680022323 0.318485736442795541734 4.00344927666009376
0.400949786901833249431 9.11108353819727057 0.400949786901833249431 4.34320546586616985
0.504765875584169521062 10.14641053426310435 0.504765875584169521062 4.70125229656233845
0.635462587779429100010 11.26502383875958913 0.635462587779429100010 5.08182029927763423
0.800000000000011368684 12.47163825175271157 0.800000000000011368684 5.49081784258061489
1.007140329435344483500 13.77321846462369237 1.007140329435344483500 5.93435649977757862
1.267914553968893187630 15.17678448047512951 1.267914553968893187630 6.41670739007442581
1.596209851975103788391 16.69057680783198805 1.596209851975103788391 6.94109864877636440
2.009509145207672986544 18.32218468271225831 2.009509145207672986544 7.50390490071378835
2.529822128134725289783 20.07701461616377259 2.529822128134725289783 8.09454094057680784
3.184857364427998049905 21.95635751209070818 3.184857364427998049905 8.69486221557304440
4.009497869018190385759 23.95560793317445203 4.009497869018190385759 9.28090398099102032
5.009497869018204596614 25.99208183321489685 5.009497869018204596614 9.80891667781332366
6.009497869018190385759 27.71966571238746369 6.009497869018190385759 10.19672797452663993
7.009497869018190385759 29.21566103357179855 7.009497869018190385759 10.48145126691326290
8.009497869018204596614 30.52995667518259992 8.009497869018204596614 10.68693116428019430
9.009497869018190385759 31.69760684994056987 9.009497869018190385759 10.82909773963710087
10.009497869018190385759 32.74469509371257914 10.009497869018190385759 10.92131571325872308
11.009497869018204596614 33.69040767980061446 11.009497869018204596614 10.98661167134998173
12.009497869018190385759 34.54982599307291480 12.009497869018190385759 11.02078534617029604
13.009497869018190385759 35.33484230005093707 13.009497869018190385759 11.02982551035039549
14.009497869018204596614 36.05508035287381574 14.009497869018204596614 11.01816323157684963
15.009497869018190385759 36.71845944134180684 15.009497869018190385759 10.98634628349433662
16.009497869018190385759 37.33160356087170584 16.009497869018190385759 10.93554906946131489
17.009497869018190385759 37.89942912999293867 17.009497869018190385759 10.85815068108038162
18.009497869018204596614 38.42643261017083489 18.009497869018204596614 10.76859038796882473
19.009497869018190385759 38.91634665814351735 19.009497869018190385759 10.65091933259714985
20.009497869018190385759 39.37222977266449675 20.009497869018190385759 10.53511720698175225
21.009497869018204596614 39.79679203008047494 21.009497869018204596614 10.41148548444709476
22.009497869018190385759 40.19302416207148099 22.009497869018190385759 10.28189741426664128
23.009497869018190385759 40.56400542535963183 23.009497869018190385759 10.14316263764823844
24.009497869018204596614 40.91180436021068090 24.009497869018204596614 10.00401172558441409
25.009497869018190385759 41.23829249107211581 25.009497869018190385759 9.85733319903913419
26.009497869018190385759 41.54516555749992790 26.009497869018190385759 9.68866203297141482
27.009497869018204596614 41.83380947055444210 27.009497869018204596614 9.51623959816974185
28.009497869018190385759 42.10462380871109644 28.009497869018190385759 9.33682676748962415
29.009497869018190385759 42.35828948439279173 29.009497869018190385759 9.15501801038988816
30.009497869018190385759 42.59615325909314976 30.009497869018190385759 8.97282435137111811
31.009497869018190385759 42.81878313692330806 31.009497869018190385759 8.78568504002800843
32.009497869018190385759 43.02811757753070765 32.009497869018190385759 8.59778361184217133
33.009497869018190385759 43.22571176352647626 33.009497869018190385759 8.41303103528226792
34.009497869018190385759 43.41234380879043897 34.009497869018190385759 8.22674257823618404
35.009497869018190385759 43.58850816181026033 35.009497869018190385759 8.03298057656290787
36.009497869018190385759 43.75487269260887047 36.009497869018190385759 7.85268996085122239
37.009497869018190385759 43.91182411753245418 37.009497869018190385759 7.67364117602914053
38.009497869018190385759 44.05972078955365845 38.009497869018190385759 7.49302918390531048
39.009497869018190385759 44.19889177851649720 39.009497869018190385759 7.30875404609020318
40.009497869018190385759 44.33013898735182323 40.009497869018190385759 7.11720026854608623
41.009497869018190385759 44.45397071148189383 41.009497869018190385759 6.94016390515511894
42.009497869018190385759 44.57085187483485811 42.009497869018190385759 6.75857793006779772
43.009497869018190385759 44.68123650003123259 43.009497869018190385759 6.58299497594166727
44.009497869018190385759 44.78552640449250788 44.009497869018190385759 6.40605173809243400
46.009497869018190385759 44.97725029694812804 46.009497869018190385759 6.06473217058275971
48.009497869018190385759 45.14861272592403907 48.009497869018190385759 5.73847091691996880
50.009497869018218807469 45.30181575070719902 50.009497869018218807469 5.42261481320451022
52.009497869018190385759 45.43896800792603585 52.009497869018190385759 5.11878388973728615
54.009497869018190385759 45.56179909946068562 54.009497869018190385759 4.82943393700080392
56.009497869018190385759 45.67190954980907946 56.009497869018190385759 4.55207545214793363
58.009497869018190385759 45.77064913729205387 58.009497869018190385759 4.28789636403906727
60.009497869018190385759 45.85929443936254302 60.009497869018190385759 4.03656416636407833
62.009497869018190385759 45.93886971989795853 62.009497869018190385759 3.79711651592083310
64.009497869018190385759 46.01042585935506679 64.009497869018190385759 3.56950212768117980
66.009497869018218807469 46.07474805284337549 66.009497869018218807469 3.35580745535052438
68.009497869018190385759 46.13261186370120015 68.009497869018190385759 3.15379707022042277
70.009497869018190385759 46.18469984354874214 70.009497869018190385759 2.96004015694139522
72.009497869018190385759 46.23157110478838661 72.009497869018190385759 2.77972864299378219
74.009497869018218807469 46.27380361889885307 74.009497869018218807469 2.60791226700341516
76.009497869018190385759 46.31186897168636563 76.009497869018190385759 2.44543396815985448
78.009497869018190385759 46.34618355841318049 78.009497869018190385759 2.29150483943340033
80.009497869018218807469 46.37713457378399795 80.009497869018218807469 2.14702909377149265
82.009497869018190385759 46.40504567695551685 82.009497869018190385759 2.00977964958438582
84.009497869018190385759 46.43020723669982175 84.009497869018190385759 1.87593349651594443
86.009497869018218807469 46.45291458031922360 86.009497869018218807469 1.75337270866242712
88.009497869018190385759 46.47340700922549672 88.009497869018190385759 1.63391561679232433
91.009497869018190385759 46.50045612677086382 91.009497869018190385759 1.46864306443335324
94.009497869018190385759 46.52367500073172835 94.009497869018190385759 1.31491814855265265
97.009497869018190385759 46.54355711898949721 97.009497869018190385759 1.17602313101482725
99.504748934509137825444 46.55790323033001954 99.504748934509137825444 0.99948989611972683
nan nan nan nan

