Time Pressure difference Time.1 Pressure.1 difference.1
(hr) (psi) (hr) (psi)
0.000200000000006639311 0.21304883628422622 0.000200000000006639311 0.17076990788577592
0.000399999999999067768 0.39839244783787769 0.000399999999999067768 0.36402025371303992
0.000600000000019917934 0.56890681189795445 0.000600000000019917934 0.49972216816503662
0.000799999999998135536 0.72882848268753364 0.000799999999998135536 0.62566209430656738
0.001007140329448930061 0.88574781583851969 0.001007140329448930061 0.74765195856379696
0.001267914553963578328 1.07313136429269806 0.001267914553963578328 0.89076445494489953
0.001596209851982166583 1.29595465582185310 0.001596209851982166583 1.05676508379440892
0.002009509145210586212 1.55978168188725630 0.002009509145210586212 1.24827872447258836
0.002529822128153114136 1.87079637925009301 0.002529822128153114136 1.46806982361339933
0.003184857364431081805 2.23583524957045654 0.003184857364431081805 1.71905403673548829
0.004009497869020606231 2.66242413007825540 0.004009497869020606231 2.00432465402128912
0.005047658755856332391 3.15882288113317822 0.005047658755856332391 2.32719570489445760
0.006354625877790454069 3.73408186424863064 0.006354625877790454069 2.69125994913297362
0.007999999999995566213 4.39811313445939245 0.007999999999995566213 3.10045733687105995
0.010071403294347192059 5.16177816214361407 0.010071403294347192059 3.55915635378068540
0.012679145539706837553 6.03699608778002883 0.012679145539706837553 4.07227045964073930
0.015962098519764822413 7.03688450315412339 0.015962098519764822413 4.64543806571303985
0.020095091452077440408 8.17594979056893401 0.020095091452077440408 5.28523001794502534
0.025298221281346400247 9.47032232070955793 0.025298221281346400247 5.99919518777405969
0.031848573644282396344 10.93796620110827256 0.031848573644282396344 6.79542830646666474
0.040094978690177640601 12.59871330252808086 0.040094978690177640601 7.68143445593806540
0.050476587558421215363 14.47394728878714076 0.050476587558421215363 8.66241656598969101
0.063546258777947173257 16.58584551655209083 0.063546258777947173257 9.73965886135034076
0.079999999999998294697 18.95631431933744793 0.079999999999998294697 10.90982814848491778
0.100714032943528764008 21.60590374891492615 0.100714032943528764008 12.16533926822891587
0.126791455396883634421 24.55290427327978975 0.126791455396883634421 13.49635122337498139
0.159620985197506115583 27.81317121196342512 0.159620985197506115583 14.89411235042741843
0.200950914520774404082 31.40074806314007461 0.200950914520774404082 16.35141277675341698
0.252982212813464002465 35.32788232486988278 0.252982212813464002465 17.86599058960385733
0.318485736442795541734 39.60718949588679294 0.318485736442795541734 19.44532505806331457
0.400949786901833249431 44.25383432838673770 0.400949786901833249431 21.09556940563568261
0.504765875584169521062 49.28256545213508133 0.504765875584169521062 22.83465401187421762
0.635462587779429100010 54.71583007397514820 0.635462587779429100010 24.68312716791994177
0.800000000000011368684 60.57652865137031029 0.800000000000011368684 26.66968666396298460
1.007140329435344483500 66.89848968531507012 1.007140329435344483500 28.82401728463395330
1.267914553968893187630 73.71581033373634284 1.267914553968893187630 31.16686446607578276
1.596209851975103788391 81.06851592375537052 1.596209851975103788391 33.71390772262805768
2.009509145207672986544 88.99346845888810265 2.009509145207672986544 36.44753808918125770
2.529822128134725289783 97.51692813565261986 2.529822128134725289783 39.31634171137306311
3.184857364427998049905 106.64516505872630603 3.184857364427998049905 42.23218790421192637
4.009497869018190385759 116.35580996113306185 4.009497869018190385759 45.07867647909923647
5.009497869018204596614 126.24725461847235408 5.009497869018204596614 47.64330957795042565
6.009497869018190385759 134.63837631731053079 6.009497869018190385759 49.52696444770082707
7.009497869018190385759 141.90463930592017050 7.009497869018190385759 50.90990615357869586
8.009497869018204596614 148.28836099374404967 8.009497869018204596614 51.90795136936094423
9.009497869018190385759 153.95980469971132720 9.009497869018190385759 52.59847473538020068
10.009497869018190385759 159.04566188374681701 10.009497869018190385759 53.04639060725666155
11.009497869018204596614 163.63912301617440903 11.009497869018204596614 53.36354240369990976
12.009497869018190385759 167.81344053778272496 12.009497869018190385759 53.52952882425572056
13.009497869018190385759 171.62637688596169028 13.009497869018190385759 53.57343819313049238
14.009497869018204596614 175.12467599967280307 14.009497869018204596614 53.51679283908755735
15.009497869018190385759 178.34680300080304960 15.009497869018190385759 53.36225337697248960
16.009497869018190385759 181.32493158137685896 16.009497869018190385759 53.11552405166924729
17.009497869018190385759 184.08294148853713068 17.009497869018190385759 52.73958902239043312
18.009497869018204596614 186.64267267797262662 18.009497869018204596614 52.30458188442001699
19.009497869018190385759 189.02225519669704568 19.009497869018190385759 51.73303675832900694
20.009497869018190385759 191.23654461008467820 20.009497869018190385759 51.17056929105422824
21.009497869018204596614 193.29870414610519447 21.009497869018204596614 50.57007235302874193
22.009497869018190385759 195.22326021577575261 22.009497869018190385759 49.94064458358082703
23.009497869018190385759 197.02516920888967888 23.009497869018190385759 49.26678995429144692
24.009497869018204596614 198.71447832102327880 24.009497869018204596614 48.59091409569573017
25.009497869018190385759 200.30027781377887663 25.009497869018190385759 47.87847553819008795
26.009497869018190385759 201.79080413642822123 26.009497869018190385759 47.05921558871830257
27.009497869018204596614 203.19278885697872283 27.009497869018204596614 46.22173519111017725
28.009497869018190385759 204.50817278516817055 28.009497869018190385759 45.35030144209245861
29.009497869018190385759 205.74026320990785166 29.009497869018190385759 44.46723033617946186
30.009497869018190385759 206.89560154416670912 30.009497869018190385759 43.58228970665972213
31.009497869018190385759 207.97694666505606165 31.009497869018190385759 42.67332733727890570
32.009497869018190385759 208.99371394800627399 32.009497869018190385759 41.76066325751911279
33.009497869018190385759 209.95345713712856650 33.009497869018190385759 40.86329359994245181
34.009497869018190385759 210.85995564269640568 34.009497869018190385759 39.95846395143289698
35.009497869018190385759 211.71561107164984605 35.009497869018190385759 39.01733422901984483
36.009497869018190385759 212.52366736410021986 36.009497869018190385759 38.14163695270593735
37.009497869018190385759 213.28600285658620805 37.009497869018190385759 37.27197142642724970
38.009497869018190385759 214.00435812068920427 38.009497869018190385759 36.39471317896865088
39.009497869018190385759 214.68033149565155782 39.009497869018190385759 35.49966250958098613
40.009497869018190385759 215.31781793856603713 40.009497869018190385759 34.56925844722385222
41.009497869018190385759 215.91928631291204965 41.009497869018190385759 33.70936753932485885
42.009497869018190385759 216.48699482062644961 42.009497869018190385759 32.82737851747216240
43.009497869018190385759 217.02314871443738298 43.009497869018190385759 31.97454702600238363
44.009497869018190385759 217.52969967896359549 44.009497869018190385759 31.11510844216325111
46.009497869018190385759 218.46093001374805453 46.009497869018190385759 29.45727054283054969
48.009497869018190385759 219.29326181163105502 48.009497869018190385759 27.87257302503984846
50.009497869018218807469 220.03739078914927063 50.009497869018218807469 26.33841480699333815
52.009497869018190385759 220.70355889564072527 52.009497869018190385759 24.86266460729538963
54.009497869018190385759 221.30016705452334236 54.009497869018190385759 23.45725055114676039
56.009497869018190385759 221.83498924192983282 56.009497869018190385759 22.11008076757567764
58.009497869018190385759 222.31458152399000028 58.009497869018190385759 20.82692519676118792
60.009497869018190385759 222.74514441976094759 60.009497869018190385759 19.60616880805409679
62.009497869018190385759 223.13165292521867400 62.009497869018190385759 18.44313736304404827
64.009497869018190385759 223.47921131686746321 64.009497869018190385759 17.33758176302287168
66.009497869018218807469 223.79163339952495448 66.009497869018218807469 16.29963621170254484
68.009497869018190385759 224.07268619512012719 68.009497869018190385759 15.31844291249919721
70.009497869018190385759 224.32568495437962497 70.009497869018190385759 14.37733790514391785
72.009497869018190385759 224.55334536611502472 72.009497869018190385759 13.50153912311265714
74.009497869018218807469 224.75847472036585373 74.009497869018218807469 12.66700243973087048
76.009497869018190385759 224.94336357676235139 76.009497869018190385759 11.87782213106214968
78.009497869018190385759 225.11003442657832352 78.009497869018190385759 11.13016636296223005
80.009497869018218807469 225.26036792980798396 80.009497869018218807469 10.42842702689010714
82.009497869018190385759 225.39593614521251652 82.009497869018190385759 9.76178686940987284
84.009497869018190385759 225.51814943539915248 84.009497869018190385759 9.11167698307744267
86.009497869018218807469 225.62844224726481457 86.009497869018218807469 8.51638172778893043
88.009497869018190385759 225.72797690195244513 88.009497869018190385759 7.93616156727700428
91.009497869018190385759 225.85935833002989170 91.009497869018190385759 7.13340917010485853
94.009497869018190385759 225.97213571783984776 94.009497869018190385759 6.38674529297002636
97.009497869018190385759 226.06870600652041503 97.009497869018190385759 5.71211235064344613
99.504748934509137825444 226.13838711874581122 99.504748934509137825444 4.85466520972438786
nan nan nan nan

