Time Pressure difference Time.1 Pressure.1 difference.1
(hr) (psi) (hr) (psi)
0.000200000000006639311 0.14272879554989013 0.000200000000006639311 0.11440467685158193
0.000399999999999067768 0.26689690132929716 0.000399999999999067768 0.24386977781429148
0.000600000000019917934 0.38113038051987141 0.000600000000019917934 0.33478119109095589
0.000799999999998135536 0.48826744755210583 0.000799999999998135536 0.41915271023805983
0.001007140329448930061 0.59339314459770109 0.001007140329448930061 0.50087794609666136
0.001267914553963578328 0.71892787477125197 0.001267914553963578328 0.59675396491406674
0.001596209851982166583 0.86820491648196041 0.001596209851982166583 0.70796353652893407
0.002009509145210586212 1.04495178034930558 0.002009509145210586212 0.83626515855189743
0.002529822128153114136 1.25331129982440870 0.002529822128153114136 0.98351082954492441
0.003184857364431081805 1.49786348418935811 0.003184857364431081805 1.15165384813978799
0.004009497869020606231 1.78365015250340653 0.004009497869020606231 1.34276651658289015
0.005047658755856332391 2.11620487134739088 0.005047658755856332391 1.55906901798484898
0.006354625877790454069 2.50159079140839635 0.006354625877790454069 1.80296826657601161
0.007999999999995566213 2.94644834171299141 0.007999999999995566213 2.07710377143322633
0.010071403294347192059 3.45805399751451281 0.010071403294347192059 2.38440213243477306
0.012679145539706837553 4.04439280390492151 0.012679145539706837553 2.72815504649134510
0.015962098519764822413 4.71425269002155289 0.015962098519764822413 3.11213988062474867
0.020095091452077440408 5.47735198387787925 0.020095091452077440408 3.54075867215271334
0.025298221281346400247 6.34449697956032477 0.025298221281346400247 4.01906867154798153
0.031848573644282396344 7.32772245499083663 0.031848573644282396344 4.55249281969171982
0.040094978690177640601 8.44031446737992397 0.040094978690177640601 5.14605903093889872
0.050476587558421215363 9.69659867386066665 0.050476587558421215363 5.80325292819570837
0.063546258777947173257 11.11143245389927792 0.063546258777947173257 6.52493485809418239
0.079999999999998294697 12.69949161916397706 0.079999999999998294697 7.30887179882159543
0.100714032943528764008 14.47454336120117446 0.100714032943528764008 8.14998218949976483
0.126791455396883634421 16.44884109811227546 0.126791455396883634421 9.04167320520219420
0.159620985197506115583 18.63300685768791709 0.159620985197506115583 9.97808180339091777
0.200950914520774404082 21.03644886582913642 0.200950914520774404082 10.95437784063545905
0.252982212813464002465 23.66737214574616388 0.252982212813464002465 11.96904598323133939
0.318485736442795541734 26.53422825704834054 0.318485736442795541734 13.02709685262411732
0.400949786901833249431 29.64717659254667126 0.400949786901833249431 14.13265270638991566
0.504765875584169521062 33.01609777022121506 0.504765875584169521062 15.29772572690919930
0.635462587779429100010 36.65602995151929377 0.635462587779429100010 16.53608192622087358
0.800000000000011368684 40.58231494617945856 0.800000000000011368684 17.86694694807977868
1.007140329435344483500 44.81761563885487476 1.007140329435344483500 19.31020765800640504
1.267914553968893187630 49.38477489678415822 1.267914553968893187630 20.87976214230567251
1.596209851975103788391 54.31060707310408731 1.596209851975103788391 22.58611465078023528
2.009509145207672986544 59.61980730088909297 2.009509145207672986544 24.41746832771946885
2.529822128134725289783 65.32996819545354583 2.529822128134725289783 26.33937925108326183
3.184857364427998049905 71.44529031712056621 3.184857364427998049905 28.29280562210276173
4.009497869018190385759 77.95078771905971848 4.009497869018190385759 30.19976692227236370
5.009497869018204596614 84.57740913982625841 5.009497869018204596614 31.91790347542430339
6.009497869018190385759 90.19891223872110686 6.009497869018190385759 33.17982912345970448
7.009497869018190385759 95.06683352193996939 7.009497869018190385759 34.10630967805109037
8.009497869018204596614 99.34350981607036601 8.009497869018204596614 34.77493474091174619
9.009497869018190385759 103.14300641647328405 9.009497869018190385759 35.23754026389849514
10.009497869018190385759 106.55019832081076459 10.009497869018190385759 35.53761462250854919
11.009497869018204596614 109.62751705331943697 11.009497869018204596614 35.75008559724994228
12.009497869018190385759 112.42403696158648074 12.009497869018190385759 35.86128565023667392
13.009497869018190385759 114.97845510334036589 13.009497869018190385759 35.89070205748938491
14.009497869018204596614 117.32208686252589303 14.009497869018204596614 35.85275337259133721
15.009497869018190385759 119.48070135674714720 15.009497869018190385759 35.74922203359268025
16.009497869018190385759 121.47585285680476375 16.009497869018190385759 35.58392951173919982
17.009497869018190385759 123.32353923251670835 17.009497869018190385759 35.33207761303933836
18.009497869018204596614 125.03839182674637698 18.009497869018204596614 35.04065126243824579
19.009497869018190385759 126.63255658602254528 19.009497869018190385759 34.65775338384786863
20.009497869018190385759 128.11598576819397977 20.009497869018190385759 34.28093694335331776
21.009497869018204596614 129.49749787565869497 21.009497869018204596614 33.87864324304213426
22.009497869018190385759 130.78682465435957738 22.009497869018190385759 33.45696777658192644
23.009497869018190385759 131.99398590791628294 23.009497869018190385759 33.00552921774426807
24.009497869018204596614 133.12571260068554579 24.009497869018204596614 32.55273656737785615
25.009497869018190385759 134.18809461380612902 25.009497869018190385759 32.07544929846068271
26.009497869018190385759 135.18664982996008916 26.009497869018190385759 31.52659867871651045
27.009497869018204596614 136.12588795974062350 27.009497869018204596614 30.96554154959995486
28.009497869018190385759 137.00710921882182447 28.009497869018190385759 30.38173789421226445
29.009497869018190385759 137.83252927461145987 29.009497869018190385759 29.79013797031630517
30.009497869018190385759 138.60653044625547636 30.009497869018190385759 29.19728558779490513
31.009497869018190385759 139.33096100109963800 31.009497869018190385759 28.58834020961495170
32.009497869018190385759 140.01212862529831682 32.009497869018190385759 27.97691492742293562
33.009497869018190385759 140.65509383369726493 33.009497869018190385759 27.37573590845817506
34.009497869018190385759 141.26238858415936761 34.009497869018190385759 26.76955918314948946
35.009497869018190385759 141.83562179636672340 35.009497869018190385759 26.13906378087930804
36.009497869018190385759 142.37696669817171369 36.009497869018190385759 25.55240384086508953
37.009497869018190385759 142.88768165228813700 37.009497869018190385759 24.96978477914244010
38.009497869018190385759 143.36893272791272125 38.009497869018190385759 24.38207909048553290
39.009497869018190385759 143.82179070787111641 39.009497869018190385759 23.78245364203955248
40.009497869018190385759 144.24886495884325655 40.009497869018190385759 23.15914373098329548
41.009497869018190385759 144.65180945799664869 41.009497869018190385759 22.58307302471110134
42.009497869018190385759 145.03213705303409142 42.009497869018190385759 21.99219802641108856
43.009497869018190385759 145.39132511914925772 43.009497869018190385759 21.42085666774669761
44.009497869018190385759 145.73068115747562956 44.009497869018190385759 20.84508898903093765
46.009497869018190385759 146.35454461705344897 46.009497869018190385759 19.73444595189628359
48.009497869018190385759 146.91215252086396958 48.009497869018190385759 18.67280218997767349
50.009497869018218807469 147.41067029992026960 50.009497869018218807469 17.64501645566546983
52.009497869018190385759 147.85695939087042916 52.009497869018190385759 16.65636027612926640
54.009497869018190385759 148.25664786332444578 54.009497869018190385759 15.71482471563753691
56.009497869018190385759 148.61494377318825855 56.009497869018190385759 14.81230901095756103
58.009497869018190385759 148.93623925626781102 58.009497869018190385759 13.95267864488903164
60.009497869018190385759 149.22468825506859957 60.009497869018190385759 13.13485165245453956
62.009497869018190385759 149.48362369173145225 62.009497869018190385759 12.35569659942493459
64.009497869018190385759 149.71646509790141977 64.009497869018190385759 11.61504660594669502
66.009497869018218807469 149.92576747353794531 66.009497869018218807469 10.91969092614059456
68.009497869018190385759 150.11405447712294858 68.009497869018190385759 10.26235554595534261
70.009497869018190385759 150.28354710996021026 70.009497869018190385759 9.63187670115850558
72.009497869018190385759 150.43606470605743652 72.009497869018190385759 9.04514875894802195
74.009497869018218807469 150.57348796625819887 74.009497869018218807469 8.48606372596349168
76.009497869018190385759 150.69735141580483173 76.009497869018190385759 7.95736449956777836
78.009497869018190385759 150.80900999166192378 78.009497869018190385759 7.45648400133090483
80.009497869018218807469 150.90972361310664951 80.009497869018218807469 6.98636451147866655
82.009497869018190385759 151.00054545675999407 82.009497869018190385759 6.53975917721903333
84.009497869018190385759 151.08242037338831665 84.009497869018190385759 6.10422804421854881
86.009497869018218807469 151.15630934865779977 86.009497869018218807469 5.70541913136186629
88.009497869018190385759 151.22299106176552641 88.009497869018190385759 5.31670954670518192
91.009497869018190385759 151.31100803155598555 91.009497869018190385759 4.77891790807678429
94.009497869018190385759 151.38656151031753438 94.009497869018190385759 4.27870191195704397
97.009497869018190385759 151.45125729194995756 97.009497869018190385759 3.82674193425459652
99.504748934509137825444 151.49793908281992572 99.504748934509137825444 3.25230839213561884
nan nan nan nan

