Time Pressure difference Time.1 Pressure.1 difference.1
(hr) (psi) (hr) (psi)
0.000200000000006639311 0.67047722007094723 0.000200000000006639311 0.53742294540523605
0.000399999999999067768 1.25376446819567411 0.000399999999999067768 1.14559315139103757
0.000600000000019917934 1.79038320214944480 0.000600000000019917934 1.57265505863702715
0.000799999999998135536 2.29366610728135578 0.000799999999998135536 1.96899541443537385
0.001007140329448930061 2.78750047925651767 0.001007140329448930061 2.35290469312724326
0.001267914553963578328 3.37720752880349107 0.001267914553963578328 2.80328813762071327
0.001596209851982166583 4.07844553449818470 0.001596209851982166583 3.32570188135299283
0.002009509145210586212 4.90872470476283596 0.002009509145210586212 3.92840657407549942
0.002529822128153114136 5.88750625234588121 0.002529822128153114136 4.62010209195981592
0.003184857364431081805 7.03630505011878959 0.003184857364431081805 5.40996417443227262
0.004009497869020606231 8.37880535054039299 0.004009497869020606231 6.30772758765523367
0.005047658755856332391 9.94100142003676801 0.005047658755856332391 7.32382177716785154
0.006354625877790454069 11.75137527866480802 0.006354625877790454069 8.46955336933024050
0.007999999999995566213 13.84112074668102821 0.007999999999995566213 9.75732161897657058
0.010071403294347192059 16.24441951027549180 0.010071403294347192059 11.20087440748627472
0.012679145539706837553 18.99878180566068053 0.012679145539706837553 12.81567468181056135
0.015962098519764822413 22.14548946580856281 0.015962098519764822413 14.61946685386162237
0.020095091452077440408 25.73019492914340844 0.020095091452077440408 16.63292976235640452
0.025298221281346400247 29.80366142105654959 0.025298221281346400247 18.87982014975954215
0.031848573644282396344 34.42242304466427072 0.031848573644282396344 21.38561261152744564
0.040094978690177640601 39.64889186383836517 0.040094978690177640601 24.17392608192273329
0.050476587558421215363 45.55036352647717734 0.050476587558421215363 27.26113448708520437
0.063546258777947173257 52.19663147856099528 0.063546258777947173257 30.65127935777901413
0.079999999999998294697 59.65663624026785072 0.079999999999998294697 34.33387093787900568
0.100714032943528764008 67.99505003334991216 0.100714032943528764008 38.28503828530865150
0.126791455396883634421 77.26943403649816844 0.126791455396883634421 42.47381120297420409
0.159620985197506115583 87.52968587294371616 0.159620985197506115583 46.87264769105099305
0.200950914520774404082 98.82000125752905717 0.200950914520774404082 51.45885785625339537
0.252982212813464002465 111.17892378709051115 0.252982212813464002465 56.22532332610624906
0.318485736442795541734 124.64615517823196456 0.318485736442795541734 61.19558180037572725
0.400949786901833249431 139.26941979815828176 0.400949786901833249431 66.38899783538288091
0.504765875584169521062 155.09513245230746747 0.504765875584169521062 71.86199939031003225
0.635462587779429100010 172.19393582103944595 0.635462587779429100010 77.67925314610099008
0.800000000000011368684 190.63789899107715087 0.800000000000011368684 83.93107273658941381
1.007140329435344483500 210.53348224496215835 1.007140329435344483500 90.71087792517155890
1.267914553968893187630 231.98799134440557168 1.267914553968893187630 98.08395581970907529
1.596209851975103788391 255.12738834828897438 1.596209851975103788391 106.09965077415300527
2.009509145207672986544 280.06768015003024175 2.009509145207672986544 114.70254633948219691
2.529822128134725289783 306.89150913278911048 2.529822128134725289783 123.73084009167405384
3.184857364427998049905 335.61860768481511741 3.184857364427998049905 132.90717958090223760
4.009497869018190385759 366.17857840709518769 4.009497869018190385759 141.86524656657701371
5.009497869018204596614 397.30753659342775563 5.009497869018204596614 149.93629778943221709
6.009497869018190385759 423.71489017506547725 6.009497869018190385759 155.86427046776435645
7.009497869018190385759 446.58224722745461577 7.009497869018190385759 160.21646936567412922
8.009497869018204596614 466.67219489207690231 8.009497869018204596614 163.35737636828298491
9.009497869018190385759 484.52056184909156400 9.009497869018190385759 165.53049402016711156
10.009497869018190385759 500.52605357532081598 10.009497869018190385759 166.94011161695476630
11.009497869018204596614 514.98194596266648659 11.009497869018204596614 167.93820697634970429
12.009497869018190385759 528.11876875125744846 12.009497869018190385759 168.46057600574593494
13.009497869018190385759 540.11830372935003197 13.009497869018190385759 168.59876137249889894
14.009497869018204596614 551.12765682249960264 14.009497869018204596614 168.42049511124614014
15.009497869018190385759 561.26788003193905752 15.009497869018190385759 167.93415033341344156
16.009497869018190385759 570.64022585903899198 16.009497869018190385759 167.15767863319439357
17.009497869018190385759 579.31984527274914853 17.009497869018190385759 165.97458898222870971
18.009497869018204596614 587.37546989832571853 18.009497869018204596614 164.60559593038061621
19.009497869018190385759 594.86415606019374991 19.009497869018190385759 162.80690979827070919
20.009497869018190385759 601.83265509644297708 20.009497869018190385759 161.03679159243537811
21.009497869018204596614 608.32239245980167652 21.009497869018204596614 159.14699240511984613
22.009497869018190385759 614.37908362023551945 22.009497869018190385759 157.16614618950436011
23.009497869018190385759 620.04979721621157296 23.009497869018190385759 155.04548603262307438
24.009497869018204596614 625.36615236322029432 24.009497869018204596614 152.91846494821891156
25.009497869018190385759 630.35675664924519879 25.009497869018190385759 150.67637889959820541
26.009497869018190385759 635.04753066464172662 26.009497869018190385759 148.09811964684877239
27.009497869018204596614 639.45965904990362105 27.009497869018204596614 145.46251957202318295
28.009497869018190385759 643.59924964744095632 28.009497869018190385759 142.72006630305568819
29.009497869018190385759 647.47671069000409716 29.009497869018190385759 139.94098958738828742
30.009497869018190385759 651.11262838899517646 30.009497869018190385759 137.15602937095852099
31.009497869018190385759 654.51568509297055698 31.009497869018190385759 134.29547132614243310
32.009497869018190385759 657.71551154225505798 32.009497869018190385759 131.42326378101603268
33.009497869018190385759 660.73587981390460300 33.009497869018190385759 128.59918868217184240
34.009497869018190385759 663.58868393436807764 34.009497869018190385759 125.75163655303880716
35.009497869018190385759 666.28148190195679490 35.009497869018190385759 122.78984595603301955
36.009497869018190385759 668.82448258702129351 36.009497869018190385759 120.03397511586868518
37.009497869018190385759 671.22359722513897395 37.009497869018190385759 117.29708654787398814
38.009497869018190385759 673.48430349746297452 38.009497869018190385759 114.53630323969545657
39.009497869018190385759 675.61163147160925746 39.009497869018190385759 111.71952613309311175
40.009497869018190385759 677.61783880666359892 40.009497869018190385759 108.79148981920445749
41.009497869018190385759 679.51069516122322511 41.009497869018190385759 106.08536255022823980
42.009497869018190385759 681.29730722961846823 42.009497869018190385759 103.30969121675062183
43.009497869018190385759 682.98461507190597786 43.009497869018190385759 100.62578034653691361
44.009497869018190385759 684.57876075438537100 44.009497869018190385759 97.92107656798434334
46.009497869018190385759 687.50939739620707769 46.009497869018190385759 92.70376317890790574
48.009497869018190385759 690.12879452483889509 48.009497869018190385759 87.71662687291951954
50.009497869018218807469 692.47061218938154070 50.009497869018218807469 82.88854071612607299
52.009497869018190385759 694.56708240686930367 52.009497869018190385759 78.24426802884136123
54.009497869018190385759 696.44464337747058380 54.009497869018190385759 73.82134732272656663
56.009497869018190385759 698.12776026136737073 56.009497869018190385759 69.58172476854699084
58.009497869018190385759 699.63706538432143134 58.009497869018190385759 65.54355870745432355
60.009497869018190385759 700.99207214454179393 60.009497869018190385759 61.70176654299375940
62.009497869018190385759 702.20843714701163663 62.009497869018190385759 58.04163817193273900
64.009497869018190385759 703.30222385014178599 64.009497869018190385759 54.56238966598374418
66.009497869018218807469 704.28543452203450670 66.009497869018218807469 51.29591396035801409
68.009497869018190385759 705.16992420228973515 68.009497869018190385759 48.20804093051217620
70.009497869018190385759 705.96612617995947403 70.009497869018190385759 45.24632811324703141
72.009497869018190385759 706.68258688747960150 72.009497869018190385759 42.49013782861924682
74.009497869018218807469 707.32814103173961939 74.009497869018218807469 39.86380179562362258
76.009497869018190385759 707.90999713863436682 76.009497869018190385759 37.38020494187205145
78.009497869018190385759 708.43452010717294343 78.009497869018190385759 35.02728825991054862
80.009497869018218807469 708.90762848498400217 80.009497869018218807469 32.81887329050710633
82.009497869018190385759 709.33426963346289540 82.009497869018190385759 30.72091750078989492
84.009497869018190385759 709.71888204669721745 84.009497869018190385759 28.67498344674371680
86.009497869018218807469 710.06598001345105331 86.009497869018218807469 26.80155426098281524
88.009497869018190385759 710.37922142673266990 88.009497869018190385759 24.97556728525410108
91.009497869018190385759 710.79268650921176231 91.009497869018190385759 22.44925827062411372
94.009497869018190385759 711.14760358261355577 94.009497869018190385759 20.09946312787625899
97.009497869018190385759 711.45151596169660024 97.009497869018190385759 17.97635357408378809
99.504748934509137825444 711.67080652075890157 99.504748934509137825444 15.27791698354439376
nan nan nan nan

