Time Pressure difference Time.1 Pressure.1 difference.1
(hr) (psi) (hr) (psi)
0.000200000000006639311 0.67326217217923778 0.000200000000006639311 0.53965523178282793
0.000399999999999067768 1.25897221261185543 0.000399999999999067768 1.15035158608009680
0.000600000000019917934 1.79781989250105201 0.000600000000019917934 1.57918737456075275
0.000799999999998135536 2.30319327698968968 0.000799999999998135536 1.97717400390343356
0.001007140329448930061 2.79907888207793665 0.001007140329448930061 2.36267792134376364
0.001267914553963578328 3.39123538977463745 0.001267914553963578328 2.81493211742391436
0.001596209851982166583 4.09538611823441823 0.001596209851982166583 3.33951580401697212
0.002009509145210586212 4.92911400779404207 0.002009509145210586212 3.94472394302285334
0.002529822128153114136 5.91196110697660071 0.002529822128153114136 4.63929254717044870
0.003184857364431081805 7.06553165468833821 0.003184857364431081805 5.43243546903012131
0.004009497869020606231 8.41360828034533625 0.004009497869020606231 6.33392790993002208
0.005047658755856332391 9.98229322240452177 0.005047658755856332391 7.35424263605536055
0.006354625877790454069 11.80018680630204564 0.006354625877790454069 8.50473323794635938
0.007999999999995566213 13.89861242164128363 0.007999999999995566213 9.79785047305331602
0.010071403294347192059 16.31189373461723946 0.010071403294347192059 11.24739932714353863
0.012679145539706837553 19.07769678720028494 0.012679145539706837553 12.86890697540063755
0.015962098519764822413 22.23747488415044771 0.015962098519764822413 14.68019153445917802
0.020095091452077440408 25.83707008980443831 0.020095091452077440408 16.70201773644718912
0.025298221281346400247 29.92745648407236203 0.025298221281346400247 18.95824100188730910
0.031848573644282396344 34.56540299500555591 0.031848573644282396344 21.47444173971654990
0.040094978690177640601 39.81358092661651682 0.040094978690177640601 24.27433698984349064
0.050476587558421215363 45.73956545182079481 0.050476587558421215363 27.37436869056219280
0.063546258777947173257 52.41343991668585289 0.063546258777947173257 30.77859515988816952
0.079999999999998294697 59.90443119869055977 0.079999999999998294697 34.47648307053894001
0.100714032943528764008 68.27748014771481166 0.100714032943528764008 38.44406232803059709
0.126791455396883634421 77.59038703353449762 0.126791455396883634421 42.65023409478303051
0.159620985197506115583 87.89325673845958420 0.159620985197506115583 47.06734197014154830
0.200950914520774404082 99.23046855247206111 0.200950914520774404082 51.67260181411945297
0.252982212813464002465 111.64072617042215541 0.252982212813464002465 56.45886568675466322
0.318485736442795541734 125.16389621739386939 0.318485736442795541734 61.44976905603669337
0.400949786901833249431 139.84790129264698066 0.400949786901833249431 66.66475691258074221
0.504765875584169521062 155.73934899416545363 0.504765875584169521062 72.16049159961558246
0.635462587779429100010 172.90917542984954025 0.635462587779429100010 78.00190840319798724
0.800000000000011368684 191.42974903880750048 0.800000000000011368684 84.27969609167388398
1.007140329435344483500 211.40797230620810865 1.007140329435344483500 91.08766246483996554
1.267914553968893187630 232.95159670824526188 1.267914553968893187630 98.49136581272968272
1.596209851975103788391 256.18710751069096432 1.596209851975103788391 106.54035545026577836
2.009509145207672986544 281.23099346321833991 2.009509145207672986544 115.17898474587671842
2.529822128134725289783 308.16624021952969770 2.529822128134725289783 124.24477919901225675
3.184857364427998049905 337.01266213002719496 3.184857364427998049905 133.45923432474816650
4.009497869018190385759 367.69956938697930582 4.009497869018190385759 142.45451031140183318
5.009497869018204596614 398.95782750347314050 5.009497869018204596614 150.55908614992830508
6.009497869018190385759 425.47486895045517485 6.009497869018190385759 156.51168176773430218
7.009497869018190385759 448.43720983276074321 7.009497869018190385759 160.88195833500196841
8.009497869018204596614 468.61060483970754831 8.009497869018204596614 164.03591168030078506
9.009497869018190385759 486.53310831575447537 9.009497869018190385759 166.21805578141388082
10.009497869018190385759 502.60508183523910475 10.009497869018190385759 167.63352848763787506
11.009497869018204596614 517.12101946614586723 11.009497869018204596614 168.63576962214969512
12.009497869018190385759 530.31240849684934346 12.009497869018190385759 169.16030840867739471
13.009497869018190385759 542.36178578014687446 13.009497869018190385759 169.29906775410844944
14.009497869018204596614 553.41686827347575672 14.009497869018204596614 169.12006103071135499
15.009497869018190385759 563.59921079011951406 15.009497869018190385759 168.63169612919085694
16.009497869018190385759 573.01048640258636624 16.009497869018190385759 167.85199920903320958
17.009497869018190385759 581.72615823338367136 17.009497869018190385759 166.66399537467827940
18.009497869018204596614 589.81524339738405160 18.009497869018204596614 165.28931595501359197
19.009497869018190385759 597.33503521309160078 19.009497869018190385759 163.48315864478482240
20.009497869018190385759 604.33247920899316341 20.009497869018190385759 161.70568792303737382
21.009497869018204596614 610.84917290615589991 21.009497869018204596614 159.80803910254508082
22.009497869018190385759 616.93102166227185990 22.009497869018190385759 157.81896507294985099
23.009497869018190385759 622.62528962417093226 23.009497869018190385759 155.68949635882296434
24.009497869018204596614 627.96372724323362036 24.009497869018204596614 153.55364029587505570
25.009497869018190385759 632.97506093439278629 25.009497869018190385759 151.30224132493401612
26.009497869018190385759 637.68531895400690246 26.009497869018190385759 148.71327279179936909
27.009497869018204596614 642.11577393692289206 27.009497869018204596614 146.06672526079586305
28.009497869018190385759 646.27255909561313274 28.009497869018190385759 143.31288070099154197
29.009497869018190385759 650.16612589536237010 29.009497869018190385759 140.52226057217495736
30.009497869018190385759 653.81714605623926673 30.009497869018190385759 137.72573250437892511
31.009497869018190385759 657.23433799055305826 31.009497869018190385759 134.85329259852514383
32.009497869018190385759 660.44745551543155671 32.009497869018190385759 131.96915480399013632
33.009497869018190385759 663.48036944968407624 33.009497869018190385759 129.13334938282466169
34.009497869018190385759 666.34502322381513295 34.009497869018190385759 126.27396941514905393
35.009497869018190385759 669.04900622969080359 35.009497869018190385759 123.29987646883067498
36.009497869018190385759 671.60256974210756198 36.009497869018190385759 120.53255860544653899
37.009497869018190385759 674.01164955006163382 37.009497869018190385759 117.78430186063775409
38.009497869018190385759 676.28174608727601935 38.009497869018190385759 115.01205112438785250
39.009497869018190385759 678.41791031468972051 39.009497869018190385759 112.18357400903533971
40.009497869018190385759 680.43245080586052609 40.009497869018190385759 109.24337555054071913
41.009497869018190385759 682.33316949211098290 41.009497869018190385759 106.52600787753968348
42.009497869018190385759 684.12720258675096829 42.009497869018190385759 103.73880727580255723
43.009497869018190385759 685.82151897666983587 43.009497869018190385759 101.04374828151735244
44.009497869018190385759 687.42228624038500584 44.009497869018190385759 98.32781001167275292
46.009497869018190385759 690.36509582775931904 46.009497869018190385759 93.08882553894490286
48.009497869018190385759 692.99537311061192213 48.009497869018190385759 88.08097423272396043
50.009497869018218807469 695.34691795133107917 50.009497869018218807469 83.23283372013906956
52.009497869018190385759 697.45209624864241960 52.009497869018190385759 78.56927018057071166
54.009497869018190385759 699.33745601870612063 54.009497869018190385759 74.12797804888535325
56.009497869018190385759 701.02756404230763110 56.009497869018190385759 69.87074543217542555
58.009497869018190385759 702.54313834541937922 58.009497869018190385759 65.81580609564727524
60.009497869018190385759 703.90377337878703656 60.009497869018190385759 61.95805633133434753
62.009497869018190385759 705.12519078002105744 62.009497869018190385759 58.28272493484834627
64.009497869018190385759 706.22352073010085860 64.009497869018190385759 54.78902472170953786
66.009497869018218807469 707.21081535078633351 66.009497869018218807469 51.50898110038027511
68.009497869018190385759 708.09897892379467521 68.009497869018190385759 48.40828201433569689
70.009497869018190385759 708.89848807478790604 70.009497869018190385759 45.43426717083061561
72.009497869018190385759 709.61792473540265291 72.009497869018190385759 42.66662853611090611
74.009497869018218807469 710.26616030913010036 74.009497869018218807469 40.02938352686194179
76.009497869018190385759 710.85043326382083251 76.009497869018190385759 37.53547059064410973
78.009497869018190385759 711.37713493627859407 78.009497869018190385759 35.17278063066822114
80.009497869018218807469 711.85220845792264299 80.009497869018218807469 32.95519259804814283
82.009497869018190385759 712.28062173993623674 82.009497869018190385759 30.84852255790636377
84.009497869018190385759 712.66683171251952444 84.009497869018190385759 28.79409033541140062
86.009497869018218807469 713.01537141537608022 86.009497869018218807469 26.91287951232645881
88.009497869018190385759 713.32991393525492185 88.009497869018190385759 25.07930795933615187
91.009497869018190385759 713.74509642202258419 91.009497869018190385759 22.54250544931829481
94.009497869018190385759 714.10148770964417508 94.009497869018190385759 20.18294999445103244
97.009497869018190385759 714.40666244544195251 97.009497869018190385759 18.05102170938631545
99.504748934509137825444 714.62686386871644117 99.504748934509137825444 15.34137665948850682
nan nan nan nan

