Time Pressure difference Time.1 Pressure.1 difference.1
(hr) (psi) (hr) (psi)
0.000200000000006639311 0.64750136517755030 0.000200000000006639311 0.51900658279010325
0.000399999999999067768 1.21080057676217723 0.000399999999999067768 1.10633606520629790
0.000600000000019917934 1.72903050674868508 0.000600000000019917934 1.51876345226628762
0.000799999999998135536 2.21506695718760183 0.000799999999998135536 1.90152205132388108
0.001007140329448930061 2.69197865597981467 0.001007140329448930061 2.27227556034095191
0.001267914553963578328 3.26147767579153358 0.001267914553963578328 2.70722530424430285
0.001596209851982166583 3.93868571867425965 0.001596209851982166583 3.21173701937516443
0.002009509145210586212 4.74051295475538659 0.002009509145210586212 3.79378828025982751
0.002529822128153114136 5.68575370164243932 0.002529822128153114136 4.46178083647209611
0.003184857364431081805 6.79518556242001459 0.003184857364431081805 5.22457599400001360
0.004009497869020606231 8.09168117964959954 0.004009497869020606231 6.09157492888823260
0.005047658755856332391 9.60034405050279638 0.005047658755856332391 7.07284969134590025
0.006354625877790454069 11.34868017565760390 0.006354625877790454069 8.17931945324727216
0.007999999999995566213 13.36681442825893740 0.007999999999995566213 9.42295857284341665
0.010071403294347192059 15.68775715945608340 0.010071403294347192059 10.81704382031384704
0.012679145539706837553 18.34773320795891038 0.012679145539706837553 12.37650825969244472
0.015962098519764822413 21.38660976448802131 0.015962098519764822413 14.11848823893178562
0.020095091452077440408 24.84847485368989339 0.020095091452077440408 16.06295397610742981
0.025298221281346400247 28.78235215117610579 0.025298221281346400247 18.23284811970547636
0.031848573644282396344 33.24283845434867146 0.031848573644282396344 20.65277230396731412
0.040094978690177640601 38.29020709591867444 0.040094978690177640601 23.34553609157647003
0.050476587558421215363 43.98944764239229244 0.050476587558421215363 26.32695230840004186
0.063546258777947173257 50.40796186403085954 0.063546258777947173257 29.60092399037848665
0.079999999999998294697 57.61232783328048157 0.079999999999998294697 33.15732084343455455
0.100714032943528764008 65.66500158983947699 0.100714032943528764008 36.97308993285258794
0.126791455396883634421 74.62157181094838165 0.126791455396883634421 41.01832234555141810
0.159620985197506115583 84.53022623243785461 0.159620985197506115583 45.26641988855391929
0.200950914520774404082 95.43364607424923918 0.200950914520774404082 49.69547020385842018
0.252982212813464002465 107.36905412460454556 0.252982212813464002465 54.29859885075681092
0.318485736442795541734 120.37479160514612886 0.318485736442795541734 59.09853694117282430
0.400949786901833249431 134.49694746862635952 0.400949786901833249431 64.11398544850059977
0.504765875584169521062 149.78034598197916694 0.504765875584169521062 69.39943866353928570
0.635462587779429100010 166.29320904835583406 0.635462587779429100010 75.01734727505079547
0.800000000000011368684 184.10513609730193707 0.800000000000011368684 81.05493005714241406
1.007140329435344483500 203.31893923968306126 1.007140329435344483500 87.60240547290712243
1.267914553968893187630 224.03824709272811333 1.267914553968893187630 94.72282337728914570
1.596209851975103788391 246.38470525847219506 1.596209851975103788391 102.46383719622251363
2.009509145207672986544 270.47034531622858822 2.009509145207672986544 110.77192948672734474
2.529822128134725289783 296.37497766717950753 2.529822128134725289783 119.49084245613381938
3.184857364427998049905 324.11765851181519338 3.184857364427998049905 128.35272794417349473
4.009497869018190385759 353.63040282305144046 4.009497869018190385759 137.00382067177218914
5.009497869018204596614 383.69263658555325947 5.009497869018204596614 144.79829381533951960
6.009497869018190385759 409.19506527810062835 6.009497869018190385759 150.52312724301231128
7.009497869018190385759 431.27880573367889383 7.009497869018190385759 154.72618536871956962
8.009497869018204596614 450.68031282412414384 8.009497869018204596614 157.75946004413623314
9.009497869018190385759 467.91705349912268730 9.009497869018190385759 159.85810948988100222
10.009497869018190385759 483.37407043099517523 10.009497869018190385759 161.21942243381926119
11.009497869018204596614 497.33458955896139742 11.009497869018204596614 162.18331514849973018
12.009497869018190385759 510.02124085012400201 12.009497869018190385759 162.68778368156151259
13.009497869018190385759 521.60957681027571198 13.009497869018190385759 162.82123372422012153
14.009497869018204596614 532.24166235194672936 14.009497869018204596614 162.64907627565824555
15.009497869018190385759 542.03440127695046158 15.009497869018190385759 162.17939751824974337
16.009497869018190385759 551.08557637477292701 16.009497869018190385759 161.42953388252419700
17.009497869018190385759 559.46776334751484683 17.009497869018190385759 160.28698624451993737
18.009497869018204596614 567.24733853109319170 18.009497869018204596614 158.96490572715885037
19.009497869018190385759 574.47940304878522966 19.009497869018190385759 157.22785681452936046
20.009497869018190385759 581.20910616790433778 20.009497869018190385759 155.51839686496870740
21.009497869018204596614 587.47645377737853778 21.009497869018204596614 153.69335715136185172
22.009497869018190385759 593.32559477343613707 22.009497869018190385759 151.78039040107898927
23.009497869018190385759 598.80198485054700086 23.009497869018190385759 149.73240084147400353
24.009497869018204596614 603.93615960310989976 24.009497869018204596614 147.67826833005563003
25.009497869018190385759 608.75574629677896610 25.009497869018190385759 145.51301389057772440
26.009497869018190385759 613.28577727737990699 26.009497869018190385759 143.02310620100661254
27.009497869018204596614 617.54671123199420890 27.009497869018204596614 140.47782263964856497
28.009497869018190385759 621.54444670002089879 28.009497869018190385759 137.82934752008492296
29.009497869018190385759 625.28903524579834539 29.009497869018190385759 135.14550396289837408
30.009497869018190385759 628.80035763423211392 30.009497869018190385759 132.45597852024030772
31.009497869018190385759 632.08679868791557510 31.009497869018190385759 129.69344582898489193
32.009497869018190385759 635.17697376354851713 32.009497869018190385759 126.91966284147967770
33.009497869018190385759 638.09384031872411924 33.009497869018190385759 124.19236290178585591
34.009497869018190385759 640.84888479643029768 34.009497869018190385759 121.44239044062938149
35.009497869018190385759 643.44940619815145055 35.009497869018190385759 118.58209422545246525
36.009497869018190385759 645.90526355755946497 36.009497869018190385759 115.92066132685137347
37.009497869018190385759 648.22216554452666060 37.009497869018190385759 113.27756021757302562
38.009497869018190385759 650.40540213150643467 38.009497869018190385759 110.61138319098314753
39.009497869018190385759 652.45983101619583522 39.009497869018190385759 107.89113115656967068
40.009497869018190385759 654.39728981328892132 40.009497869018190385759 105.06343253568032026
41.009497869018190385759 656.22528193139930863 41.009497869018190385759 102.45003859990889339
42.009497869018190385759 657.95067053327647955 42.009497869018190385759 99.76948372957224365
43.009497869018190385759 659.58015785760380822 43.009497869018190385759 97.17754488294842474
44.009497869018190385759 661.11967549488940676 44.009497869018190385759 94.56552565755498563
46.009497869018190385759 663.94988533590094448 46.009497869018190385759 89.52699870860266174
48.009497869018190385759 666.47952119221213252 48.009497869018190385759 84.71076115453287514
50.009497869018218807469 668.74108965329673993 50.009497869018218807469 80.04812343301895794
52.009497869018190385759 670.76571821224149517 52.009497869018190385759 75.56300027707420952
54.009497869018190385759 672.57893908727680810 54.009497869018190385759 71.29164383191663035
56.009497869018190385759 674.20437906861025112 56.009497869018190385759 67.19730429361236190
58.009497869018190385759 675.66196345526361711 58.009497869018190385759 63.29751775486243304
60.009497869018190385759 676.97053696201851380 60.009497869018190385759 59.58737578918401567
62.009497869018190385759 678.14521967468419916 62.009497869018190385759 56.05267237787897017
64.009497869018190385759 679.20152459047960747 64.009497869018190385759 52.69265045624597832
66.009497869018218807469 680.15104268483071337 66.009497869018218807469 49.53811005517440691
68.009497869018190385759 681.00522274987486071 68.009497869018190385759 46.55605198896814301
70.009497869018190385759 681.77414054762436990 70.009497869018190385759 43.69583088818249905
72.009497869018190385759 682.46604964211417155 72.009497869018190385759 41.03408949181297771
74.009497869018218807469 683.08948199326880513 74.009497869018218807469 38.49775251290755307
76.009497869018190385759 683.65139910584639438 76.009497869018190385759 36.09926333950260613
78.009497869018190385759 684.15794776705172353 78.009497869018190385759 33.82697620115971660
80.009497869018218807469 684.61484370823995960 80.009497869018218807469 31.69423900329346466
82.009497869018190385759 685.02686475505765884 82.009497869018190385759 29.66817577957902685
84.009497869018190385759 685.39829730366409422 84.009497869018190385759 27.69235161523536703
86.009497869018218807469 685.73350094756960971 86.009497869018218807469 25.88312093739773445
88.009497869018190385759 686.03600823142403442 88.009497869018190385759 24.11970672407716876
91.009497869018190385759 686.43530472852228286 91.009497869018190385759 21.67996904639711886
94.009497869018190385759 686.77805953461120225 94.009497869018190385759 19.41069647863439585
97.009497869018190385759 687.07155747079741559 97.009497869018190385759 17.36034145783792582
99.504748934509137825444 687.28333340010976826 99.504748934509137825444 14.75437465700549033
nan nan nan nan

