Time Pressure difference Time.1 Pressure.1 difference.1
(hr) (psi) (hr) (psi)
0.000200000000006639311 0.21722626444666204 0.000200000000006639311 0.17411833745216371
0.000399999999999067768 0.40620406446214985 0.000399999999999067768 0.37115790574662894
0.000600000000019917934 0.58006184742536526 0.000600000000019917934 0.50952064205062553
0.000799999999998135536 0.74311923725003426 0.000799999999998135536 0.63792997850865696
0.001007140329448930061 0.90311542007064749 0.001007140329448930061 0.76231180088857742
0.001267914553963578328 1.09417315574941765 0.001267914553963578328 0.90823042464970150
0.001596209851982166583 1.32136553142620317 0.001596209851982166583 1.07748596779037786
0.002009509145210586212 1.59036563643406526 0.002009509145210586212 1.27275477789361946
0.002529822128153114136 1.90747866119617338 0.002529822128153114136 1.49685550642934850
0.003184857364431081805 2.27967515642477947 0.003184857364431081805 1.75276097863226266
0.004009497869020606231 2.71462852478567207 0.004009497869020606231 2.04362513743347129
0.005047658755856332391 3.22076058468480886 0.005047658755856332391 2.37282699322572155
0.006354625877790454069 3.80729915570448663 0.006354625877790454069 2.74402975205714927
0.007999999999995566213 4.48435064689977292 0.007999999999995566213 3.16125061798617901
0.010071403294347192059 5.26298949865623378 0.010071403294347192059 3.62894373326658126
0.012679145539706837553 6.15536856008944078 0.012679145539706837553 4.15211890002585271
0.015962098519764822413 7.17486263066694896 0.015962098519764822413 4.73652508660937333
0.020095091452077440408 8.33626253156048058 0.020095091452077440408 5.38886197908120312
0.025298221281346400247 9.65601491523327482 0.025298221281346400247 6.11682646596570834
0.031848573644282396344 11.15243612662020034 0.031848573644282396344 6.92867199875032469
0.040094978690177640601 12.84574689669529768 0.040094978690177640601 7.83205081781920320
0.050476587558421215363 14.75775017680257406 0.050476587558421215363 8.83226787120517542
0.063546258777947173257 16.91105817373938436 0.063546258777947173257 9.93063256451407383
0.079999999999998294697 19.32800675697151505 0.079999999999998294697 11.12374634747481927
0.100714032943528764008 22.02954892046227542 0.100714032943528764008 12.40387533231183603
0.126791455396883634421 25.03433376883429418 0.126791455396883634421 13.76098556108821569
0.159620985197506115583 28.35852751023721652 0.159620985197506115583 15.18615376906324954
0.200950914520774404082 32.01644900555459117 0.200950914520774404082 16.67202871355249982
0.252982212813464002465 36.02058589986732784 0.252982212813464002465 18.21630413057648212
0.318485736442795541734 40.38380105462967151 0.318485736442795541734 19.82660594155475309
0.400949786901833249431 45.12155657011981447 0.400949786901833249431 21.50920802143246036
0.504765875584169521062 50.24889026492204636 0.504765875584169521062 23.28239232583253582
0.635462587779429100010 55.78868948719034648 0.635462587779429100010 25.16711005356543041
0.800000000000011368684 61.76430372296580629 0.800000000000011368684 27.19262169658971118
1.007140329435344483500 68.21022477718399557 1.007140329435344483500 29.38919409413658101
1.267914553968893187630 75.16121837949589235 1.267914553968893187630 31.77797945560667969
1.596209851975103788391 82.65809466735841227 1.596209851975103788391 34.37496473679723152
2.009509145207672986544 90.73843842867023568 2.009509145207672986544 37.16219569877304707
2.529822128134725289783 99.42902476576345805 2.529822128134725289783 40.08725037238038169
3.184857364427998049905 108.73624672654446499 3.184857364427998049905 43.06027001998079129
4.009497869018190385759 118.63729643095919641 4.009497869018190385759 45.96257209633647278
5.009497869018204596614 128.72269098354044559 5.009497869018204596614 48.57749211869455053
6.009497869018190385759 137.27834448039504878 6.009497869018190385759 50.49808139765573856
7.009497869018190385759 144.68708321387936167 7.009497869018190385759 51.90813960757044043
8.009497869018204596614 151.19597591519001867 8.009497869018204596614 52.92575433738763735
9.009497869018190385759 156.97862439970566584 9.009497869018190385759 53.62981737725040432
10.009497869018190385759 162.16420427362419332 10.009497869018190385759 54.08651591328130337
11.009497869018204596614 166.84773327139350840 11.009497869018204596614 54.40988637239991021
12.009497869018190385759 171.10390015617065274 12.009497869018190385759 54.57912742865289601
13.009497869018190385759 174.99159996215703927 13.009497869018190385759 54.62389776554481813
14.009497869018204596614 178.55849317613697735 14.009497869018204596614 54.56614171828535120
15.009497869018190385759 181.84379913807370599 15.009497869018190385759 54.40857207063861978
16.009497869018190385759 184.88032239669797718 16.009497869018190385759 54.15700491542747130
17.009497869018190385759 187.69241092948885807 17.009497869018190385759 53.77369861106475213
18.009497869018204596614 190.30233292656032518 18.009497869018204596614 53.33016192136942379
19.009497869018190385759 192.72857392604404936 19.009497869018190385759 52.74741002810016255
20.009497869018190385759 194.98628077890987242 20.009497869018190385759 52.17391378695725024
21.009497869018204596614 197.08887481563664323 21.009497869018204596614 51.56164239916655845
22.009497869018190385759 199.05116727883017802 22.009497869018190385759 50.91987290874907757
23.009497869018190385759 200.88840782082868941 23.009497869018190385759 50.23280544359127475
24.009497869018204596614 202.61084064104335312 24.009497869018204596614 49.54367711717995348
25.009497869018190385759 204.22773424150003052 25.009497869018190385759 48.81726917619381112
26.009497869018190385759 205.74748657047584288 26.009497869018190385759 47.98194530614415498
27.009497869018204596614 207.17696118750771461 27.009497869018204596614 47.12804372426919741
28.009497869018190385759 208.51813695742637833 28.009497869018190385759 46.23952303899623217
29.009497869018190385759 209.77438601794526107 29.009497869018190385759 45.33913681335945256
30.009497869018190385759 210.95237804503273082 30.009497869018190385759 44.43684440679029990
31.009497869018190385759 212.05492601142972831 31.009497869018190385759 43.51005924585300022
32.009497869018190385759 213.09162990777110736 32.009497869018190385759 42.57949979198026824
33.009497869018190385759 214.07019159079774795 33.009497869018190385759 41.66453465092171626
34.009497869018190385759 214.99446457686693179 34.009497869018190385759 40.74196324459824581
35.009497869018190385759 215.86689756325080225 35.009497869018190385759 39.78237999821631377
36.009497869018190385759 216.69079809672962256 36.009497869018190385759 38.88951218707272517
37.009497869018190385759 217.46808134397025469 37.009497869018190385759 38.00279439557288441
38.009497869018190385759 218.20052200540860099 38.009497869018190385759 37.10833500600725188
39.009497869018190385759 218.88974976027216712 39.009497869018190385759 36.19573432349434228
40.009497869018190385759 219.53973593736142789 40.009497869018190385759 35.24708704422823757
41.009497869018190385759 220.15299780924368633 41.009497869018190385759 34.37033553029201016
42.009497869018190385759 220.73183785632502918 42.009497869018190385759 33.47105260605004418
43.009497869018190385759 221.27850457158322683 43.009497869018190385759 32.60149892847302056
44.009497869018190385759 221.79498790796287722 44.009497869018190385759 31.72520860769586193
46.009497869018190385759 222.74447766107641655 46.009497869018190385759 30.03486408288605247
48.009497869018190385759 223.59312969029048190 48.009497869018190385759 28.41909406474650979
50.009497869018218807469 224.35184943207374886 50.009497869018218807469 26.85485431301281167
52.009497869018190385759 225.03107965830034232 52.009497869018190385759 25.35016783488941527
54.009497869018190385759 225.63938601637673287 54.009497869018190385759 23.91719664038493320
56.009497869018190385759 226.18469491334022337 56.009497869018190385759 22.54361176301833680
58.009497869018190385759 226.67369096563686526 58.009497869018190385759 21.23529627905062256
60.009497869018190385759 227.11269627112878311 60.009497869018190385759 19.99060349056496122
62.009497869018190385759 227.50678337473274837 62.009497869018190385759 18.80476750741746272
64.009497869018190385759 227.86115663680607213 64.009497869018190385759 17.67753434661155509
66.009497869018218807469 228.17970464265289365 66.009497869018218807469 16.61923692173592926
68.009497869018190385759 228.46626827737739518 68.009497869018190385759 15.61880453823447468
70.009497869018190385759 228.72422779662235826 70.009497869018190385759 14.65924649151928882
72.009497869018190385759 228.95635213799963026 72.009497869018190385759 13.76627518435015851
74.009497869018218807469 229.16550363645146149 74.009497869018218807469 12.91537503658834041
76.009497869018190385759 229.35401776454199307 76.009497869018190385759 12.11072060422023000
78.009497869018190385759 229.52395667023671422 78.009497869018190385759 11.34840491909874416
80.009497869018218807469 229.67723788921600203 80.009497869018218807469 10.63290598820167787
82.009497869018190385759 229.81546430492255695 82.009497869018190385759 9.95319445508457612
84.009497869018190385759 229.94007393413244245 84.009497869018190385759 9.29033731607896129
86.009497869018218807469 230.05252935015235494 86.009497869018218807469 8.68336960480439934
88.009497869018190385759 230.15401566473582307 88.009497869018190385759 8.09177257840008224
91.009497869018190385759 230.28797319924618137 91.009497869018190385759 7.27327993814613016
94.009497869018190385759 230.40296190838569146 94.009497869018190385759 6.51197559283218386
97.009497869018190385759 230.50142573213844344 97.009497869018190385759 5.82411455359723984
99.504748934509137825444 230.57247314068203536 99.504748934509137825444 4.94985472364055124
nan nan nan nan

