Time Pressure difference Time.1 Pressure.1 difference.1
(hr) (psi) (hr) (psi)
0.000200000000006639311 0.60503084552611952 0.000200000000006639311 0.48496421553182778
0.000399999999999067768 1.13138247441541084 0.000399999999999067768 1.03376993619814295
0.000600000000019917934 1.61562097888667466 0.000600000000019917934 1.41914563442946684
0.000799999999998135536 2.06977761913551195 0.000799999999998135536 1.77679856193597074
0.001007140329448930061 2.51540801295318195 0.001007140329448930061 2.12323383003901833
0.001267914553963578328 3.04755279598155138 0.001267914553963578328 2.52965461224548260
0.001596209851982166583 3.68034181669670035 0.001596209851982166583 3.00107469874948185
0.002009509145210586212 4.42957608352949528 0.002009509145210586212 3.54494840381267773
0.002529822128153114136 5.31281716852395736 0.002529822128153114136 4.16912639450994771
0.003184857364431081805 6.34947984273440102 0.003184857364431081805 4.88188875138280931
0.004009497869020606231 7.56093650012419616 0.004009497869020606231 5.69202001419771353
0.005047658755856332391 8.97064406439454842 0.005047658755856332391 6.60893159331138413
0.006354625877790454069 10.60430437918974000 0.006354625877790454069 7.64282645685148410
0.007999999999995566213 12.49006638511507106 0.007999999999995566213 8.80489354817304282
0.010071403294347192059 14.65877523824444673 0.010071403294347192059 10.10753879554057377
0.012679145539706837553 17.14427973947988448 0.012679145539706837553 11.56471578244380005
0.015962098519764822413 19.98383213477429265 0.015962098519764822413 13.19243685981905578
0.020095091452077440408 23.21862865360915862 0.020095091452077440408 15.00936237122296468
0.025298221281346400247 26.89447744018498554 0.025298221281346400247 17.03693012475705260
0.031848573644282396344 31.06239421164408299 0.031848573644282396344 19.29812809908343496
0.040094978690177640601 35.77869888855196479 0.040094978690177640601 21.81426974578489464
0.050476587558421215363 41.10411828090204267 0.050476587558421215363 24.60013070537595326
0.063546258777947173257 47.10163318262669208 0.063546258777947173257 27.65935800821387858
0.079999999999998294697 53.83345471733412779 0.079999999999998294697 30.98248582037056664
0.100714032943528764008 61.35794234577473816 0.100714032943528764008 34.54797328134289813
0.126791455396883634421 69.72703860614423377 0.126791455396883634421 38.32787324546686136
0.159620985197506115583 78.98577053332095943 0.159620985197506115583 42.29733213242296586
0.200950914520774404082 89.17401982636837943 0.200950914520774404082 46.43587484640104179
0.252982212813464002465 100.32656777879714127 0.252982212813464002465 50.73707785086846656
0.318485736442795541734 112.47924075792685983 0.318485736442795541734 55.22218129234320827
0.400949786901833249431 125.67510467767345972 0.400949786901833249431 59.90865952123335347
0.504765875584169521062 139.95604371864504856 0.504765875584169521062 64.84743247162973034
0.635462587779429100010 155.38580501400130629 0.635462587779429100010 70.09685460432164916
0.800000000000011368684 172.02942286941438965 0.800000000000011368684 75.73842389210403780
1.007140329435344483500 189.98296580568236891 1.007140329435344483500 81.85644124296375423
1.267914553968893187630 209.34326529417285201 1.267914553968893187630 88.50982098372502094
1.596209851975103788391 230.22398803184123040 1.596209851975103788391 95.74309088550255353
2.009509145207672986544 252.72981729011036123 2.009509145207672986544 103.50624378921082780
2.529822128134725289783 276.93532859438602145 2.529822128134725289783 111.65327106922612188
3.184857364427998049905 302.85832822233055595 3.184857364427998049905 119.93389310052342012
4.009497869018190385759 330.43529037981903684 4.009497869018190385759 128.01754856319357145
5.009497869018204596614 358.52570020736106926 5.009497869018204596614 135.30077131777423460
6.009497869018190385759 382.35538895340800991 6.009497869018190385759 140.65010491847064600
7.009497869018190385759 402.99062600276016610 7.009497869018190385759 144.57747858647024941
8.009497869018204596614 421.11956112275686337 8.009497869018204596614 147.41179653586490872
9.009497869018190385759 437.22571988251360153 9.009497869018190385759 149.37279263086728065
10.009497869018190385759 451.66888946724174048 10.009497869018190385759 150.64481515590208005
11.009497869018204596614 464.71371863090047327 11.009497869018204596614 151.54548480004973499
12.009497869018190385759 476.56823472984706314 12.009497869018190385759 152.01686453685692868
13.009497869018190385759 487.39647553562332405 13.009497869018190385759 152.14156140467449063
14.009497869018204596614 497.33118772456094803 14.009497869018204596614 151.98069600381401756
15.009497869018190385759 506.48160721469895407 15.009497869018190385759 151.54182413264410911
16.009497869018190385759 514.93910308567490119 16.009497869018190385759 150.84114510098228834
17.009497869018190385759 522.77149069783911273 17.009497869018190385759 149.77353875966431929
18.009497869018204596614 530.04079267045165125 18.009497869018204596614 148.53817535150650997
19.009497869018190385759 536.79849596709061643 19.009497869018190385759 146.91506190518924768
20.009497869018190385759 543.08678845151496262 20.009497869018190385759 145.31772782328798144
21.009497869018204596614 548.94305197047515321 21.009497869018204596614 143.61239501562735654
22.009497869018190385759 554.40853963238282631 22.009497869018190385759 141.82490242853509699
23.009497869018190385759 559.52572562916714105 23.009497869018190385759 139.91124336692570296
24.009497869018204596614 564.32314268290588188 24.009497869018204596614 137.99184427829931110
25.009497869018190385759 568.82660594828053036 25.009497869018190385759 135.96861190420648313
26.009497869018190385759 573.05950586456253859 26.009497869018190385759 133.64202074051047475
27.009497869018204596614 577.04095920494933125 27.009497869018204596614 131.26368588586515784
28.009497869018190385759 580.77647761539583371 28.009497869018190385759 128.78892795156323814
29.009497869018190385759 584.27545336408468302 29.009497869018190385759 126.28112144490179958
30.009497869018190385759 587.55646320876110167 30.009497869018190385759 123.76800573557939344
31.009497869018190385759 590.62734199978342531 31.009497869018190385759 121.18667142514824775
32.009497869018190385759 593.51482817260603042 32.009497869018190385759 118.59482474112454042
33.009497869018190385759 596.24037337308732276 33.009497869018190385759 116.04641221683002072
34.009497869018190385759 598.81471063236335794 34.009497869018190385759 113.47681429344831372
35.009497869018190385759 601.24466020020815904 35.009497869018190385759 110.80412890528837977
36.009497869018190385759 603.53943444249375716 36.009497869018190385759 108.31726311078908509
37.009497869018190385759 605.70436758945561451 37.009497869018190385759 105.84752669792574409
38.009497869018190385759 607.74440263685914942 38.009497869018190385759 103.35622794942403857
39.009497869018190385759 609.66407865921962639 39.009497869018190385759 100.81440104845059125
40.009497869018190385759 611.47445682553552615 40.009497869018190385759 98.17217513280236574
41.009497869018190385759 613.18254838536142870 41.009497869018190385759 95.73019735840949807
42.009497869018190385759 614.79476633700778621 42.009497869018190385759 93.22546382903041717
43.009497869018190385759 616.31737330995463253 43.009497869018190385759 90.80353387449696356
44.009497869018190385759 617.75591183339656709 44.009497869018190385759 88.36284064130674665
46.009497869018190385759 620.40048425472889448 46.009497869018190385759 83.65479771803839526
48.009497869018190385759 622.76419775917452171 48.009497869018190385759 79.15446391751513033
50.009497869018218807469 624.87742678356437409 50.009497869018218807469 74.79765512182093801
52.009497869018190385759 626.76925712520198886 52.009497869018190385759 70.60671746320161901
54.009497869018190385759 628.46354630843393352 54.009497869018190385759 66.61552525799521618
56.009497869018190385759 629.98237140927130895 56.009497869018190385759 62.78973917327864029
58.009497869018190385759 631.34435079852050876 58.009497869018190385759 59.14574508491983806
60.009497869018190385759 632.56709313977864895 60.009497869018190385759 55.67895651699022608
62.009497869018190385759 633.66472677129081603 62.009497869018190385759 52.37609924341594336
64.009497869018190385759 634.65174717110403435 64.009497869018190385759 49.23646585642769935
66.009497869018218807469 635.53898504636345024 66.009497869018218807469 46.28883616983500815
68.009497869018190385759 636.33713824692608796 68.009497869018190385759 43.50237546065947924
70.009497869018190385759 637.05562165148990061 70.009497869018190385759 40.82976026003289149
72.009497869018190385759 637.70214746128738170 72.009497869018190385759 38.34260620256502961
74.009497869018218807469 638.28468801306519254 74.009497869018218807469 35.97263111152329174
76.009497869018190385759 638.80974819675316212 76.009497869018190385759 33.73146219572878124
78.009497869018190385759 639.28307162319129020 78.009497869018190385759 31.60821754710515918
80.009497869018218807469 639.70999912092531758 80.009497869018218807469 29.61536956329249293
82.009497869018190385759 640.09499513133880555 82.009497869018190385759 27.72219865855287324
84.009497869018190385759 640.44206489987539044 84.009497869018190385759 25.87597156305326251
86.009497869018218807469 640.75528206821275035 86.009497869018218807469 24.18541085440713090
88.009497869018190385759 641.03794747645974894 88.009497869018190385759 22.53766144432587026
91.009497869018190385759 641.41105355815682287 91.009497869018190385759 20.25794957131085283
94.009497869018190385759 641.73132659739474093 94.009497869018190385759 18.13752176336912569
97.009497869018190385759 642.00557359368053767 97.009497869018190385759 16.22165239447436491
99.504748934509137825444 642.20345884375853984 99.504748934509137825444 13.78661459885781859
nan nan nan nan

