Time Pressure difference Time.1 Pressure.1 difference.1
(hr) (psi) (hr) (psi)
0.000200000000006639311 0.35438515577997109 0.000200000000006639311 0.28405844154856197
0.000399999999999067768 0.66268547695908420 0.000399999999999067768 0.60551081418280173
0.000600000000019917934 0.94631884724202231 0.000600000000019917934 0.83123720129412948
0.000799999999998135536 1.21233234538547241 0.000799999999998135536 1.04072550981059742
0.001007140329448930061 1.47335175902551163 0.001007140329448930061 1.24364329055219813
0.001267914553963578328 1.78504530857837684 0.001267914553963578328 1.48169642995736561
0.001596209851982166583 2.15568928043569663 0.001596209851982166583 1.75782165899135356
0.002009509145210586212 2.59453881072095882 0.002009509145210586212 2.07638519855080883
0.002529822128153114136 3.11188025175914174 0.002529822128153114136 2.44198542555300779
0.003184857364431081805 3.71908543147504078 0.003184857364431081805 2.85947223757635172
0.004009497869020606231 4.42867281767918985 0.004009497869020606231 3.33399100946678528
0.005047658755856332391 5.25438185129669222 0.005047658755856332391 3.87105429343555185
0.006354625877790454069 6.21126689183840863 0.006354625877790454069 4.47663828140092690
0.007999999999995566213 7.31581563869225704 0.007999999999995566213 5.15729668126591356
0.010071403294347192059 8.58609504748725350 0.010071403294347192059 5.92029602638682650
0.012679145539706837553 10.04193140091514458 0.012679145539706837553 6.77380935933704720
0.015962098519764822413 11.70514448400473384 0.015962098519764822413 7.72721560603900937
0.020095091452077440408 13.59986419411629655 0.020095091452077440408 8.79144470305234726
0.025298221281346400247 15.75292176876197736 0.025298221281346400247 9.97905343325815863
0.031848573644282396344 18.19419868092846571 0.031848573644282396344 11.30350656206383064
0.040094978690177640601 20.95668323851893078 0.040094978690177640601 12.77728803291658366
0.050476587558421215363 24.07594499997599513 0.050476587558421215363 14.40905239244690428
0.063546258777947173257 27.58887375138893461 0.063546258777947173257 16.20093581838994723
0.079999999999998294697 31.53190845929006514 0.079999999999998294697 18.14739388097654782
0.100714032943528764008 35.93923205293365442 0.100714032943528764008 20.23580943636770968
0.126791455396883634421 40.84126887287389707 0.126791455396883634421 22.44981298267276415
0.159620985197506115583 46.26439263689340464 0.159620985197506115583 24.77484701427306035
0.200950914520774404082 52.23196328149770551 0.200950914520774404082 27.19891863845584723
0.252982212813464002465 58.76435327895023164 0.252982212813464002465 29.71826539251098609
0.318485736442795541734 65.88254723335415974 0.318485736442795541734 32.34532828285695416
0.400949786901833249431 73.61177017368905240 0.400949786901833249431 35.09034257342666763
0.504765875584169521062 81.97655495142730331 0.504765875584169521062 37.98313363413064536
0.635462587779429100010 91.01424022108936640 0.635462587779429100010 41.05788146559232388
0.800000000000011368684 100.76291857368460114 0.800000000000011368684 44.36232193450052819
1.007140329435344483500 111.27886029354696973 1.007140329435344483500 47.94583267280614791
1.267914553968893187630 122.61878254860064885 1.267914553968893187630 51.84292161187115511
1.596209851975103788391 134.84926341565844155 1.596209851975103788391 56.07967003535189576
2.009509145207672986544 148.03161910318317496 2.009509145207672986544 60.62678721370346580
2.529822128134725289783 162.20953078773590050 2.529822128134725289783 65.39875140878721993
3.184857364427998049905 177.39342815324079083 3.184857364427998049905 70.24896615439173786
4.009497869018190385759 193.54610219025073548 4.009497869018190385759 74.98381152895919399
5.009497869018204596614 209.99951830327592006 5.009497869018204596614 79.24981887312669926
6.009497869018190385759 223.95729916833678885 6.009497869018190385759 82.38308792117554447
7.009497869018190385759 236.04399152520704774 7.009497869018190385759 84.68347134696588796
8.009497869018204596614 246.66266583599909268 8.009497869018204596614 86.34361845426380455
9.009497869018190385759 256.09653788285316978 9.009497869018190385759 87.49223411865530409
10.009497869018190385759 264.55634607459847985 10.009497869018190385759 88.23729679442365637
11.009497869018204596614 272.19710331775411305 11.009497869018204596614 88.76484667804984952
12.009497869018190385759 279.14065762657321557 12.009497869018190385759 89.04094827302667170
13.009497869018190385759 285.48309096390363493 13.009497869018190385759 89.11398705981510204
14.009497869018204596614 291.30215713671066169 14.009497869018204596614 89.01976325194628714
15.009497869018190385759 296.66183897845996853 15.009497869018190385759 88.76270251267646927
16.009497869018190385759 301.61565416640797821 16.009497869018190385759 88.35229327548904621
17.009497869018190385759 306.20332424073660604 17.009497869018190385759 87.72696343920499373
18.009497869018204596614 310.46117775518973758 18.009497869018204596614 87.00337313454177490
19.009497869018190385759 314.41937220627056604 19.009497869018190385759 86.05266571891982608
20.009497869018190385759 318.10261832200359322 20.009497869018190385759 85.11705806910653394
21.009497869018204596614 321.53281179858669248 21.009497869018204596614 84.11819224735826594
22.009497869018190385759 324.73411584911718819 22.009497869018190385759 83.07120291844000803
23.009497869018190385759 327.73140891282622533 23.009497869018190385759 81.95031400893576290
24.009497869018204596614 330.54140348170210473 24.009497869018204596614 80.82606298924550003
25.009497869018190385759 333.17922028501129716 25.009497869018190385759 79.64099362398285109
26.009497869018190385759 335.65855982170575089 26.009497869018190385759 78.27823769495952888
27.009497869018204596614 337.99061937320971083 27.009497869018204596614 76.88517389632379206
28.009497869018190385759 340.17862727990393523 28.009497869018190385759 75.43563213733679618
29.009497869018190385759 342.22808488184017506 29.009497869018190385759 73.96673281410242851
30.009497869018190385759 344.14987315680019719 30.009497869018190385759 72.49472372774442874
31.009497869018190385759 345.94858121736450585 31.009497869018190385759 70.98275691070249138
32.009497869018190385759 347.63987058671631303 32.009497869018190385759 69.46463267345500014
33.009497869018190385759 349.23630615293609480 33.009497869018190385759 67.97194915807419591
34.009497869018190385759 350.74417458213224563 34.009497869018190385759 66.46685670352727016
35.009497869018190385759 352.16747070414953669 35.009497869018190385759 64.90138275350032870
36.009497869018190385759 353.51159048472879931 36.009497869018190385759 63.44474904878209998
37.009497869018190385759 354.77965834641304355 37.009497869018190385759 61.99814854918781748
38.009497869018190385759 355.97456955369545994 38.009497869018190385759 60.53891832710798582
39.009497869018190385759 357.09898278198249955 39.009497869018190385759 59.05009221364942107
40.009497869018190385759 358.15937689781083009 40.009497869018190385759 57.50245931253900977
41.009497869018190385759 359.15985860546481945 41.009497869018190385759 56.07211790038024191
42.009497869018190385759 360.10418419509431942 42.009497869018190385759 54.60501851435728327
43.009497869018190385759 360.99602188120468327 43.009497869018190385759 53.18641972625887604
44.009497869018190385759 361.83861809343943605 44.009497869018190385759 51.75683070934998398
46.009497869018190385759 363.38762541502529757 46.009497869018190385759 48.99918531470832761
48.009497869018190385759 364.77212503960856793 48.009497869018190385759 46.36320153511530151
50.009497869018218807469 366.00990820809471415 50.009497869018218807469 43.81128476065231325
52.009497869018190385759 367.11801136562456804 52.009497869018190385759 41.35652380755998081
54.009497869018190385759 368.11040859722999130 54.009497869018190385759 39.01875990370490399
56.009497869018190385759 369.00003112464798960 56.009497869018190385759 36.77787944671901954
58.009497869018190385759 369.79778429970883735 58.009497869018190385759 34.64348014755374550
60.009497869018190385759 370.51398205770692584 60.009497869018190385759 32.61287556633834583
62.009497869018190385759 371.15689980044544427 62.009497869018190385759 30.67829058101118278
64.009497869018190385759 371.73502797478937509 64.009497869018190385759 28.83931084110667342
66.009497869018218807469 372.25471045868692954 66.009497869018218807469 27.11279356783201422
68.009497869018190385759 372.72221331149063417 68.009497869018190385759 25.48067791654277769
70.009497869018190385759 373.14305111692556238 70.009497869018190385759 23.91524507751063311
72.009497869018190385759 373.52174114821087869 72.009497869018190385759 22.45844252831484411
74.009497869018218807469 373.86295304792884053 74.009497869018218807469 21.07027530007520966
76.009497869018190385759 374.17049692997392185 76.009497869018190385759 19.75755380624390156
78.009497869018190385759 374.44773700368750724 78.009497869018190385759 18.51390417891429863
80.009497869018218807469 374.69780155644531305 80.009497869018218807469 17.34663188459824923
82.009497869018190385759 374.92330554873586834 82.009497869018190385759 16.23774351807067262
84.009497869018190385759 375.12659497587634405 84.009497869018190385759 15.15635158296215401
86.009497869018218807469 375.31005589496010089 86.009497869018218807469 14.16613823347897494
88.009497869018190385759 375.47562170945684557 88.009497869018190385759 13.20100077694116081
91.009497869018190385759 375.69416140518040947 91.009497869018190385759 11.86570348883455139
94.009497869018190385759 375.88175516464207249 94.009497869018190385759 10.62370377163968449
97.009497869018190385759 376.04239005659769646 97.009497869018190385759 9.50152021724677986
99.504748934509137825444 376.15829752758702398 99.504748934509137825444 8.07524376388795240
nan nan nan nan

