Time Pressure difference Time.1 Pressure.1 difference.1
(hr) (psi) (hr) (psi)
0.000200000000006639311 0.10373946603382257 0.000200000000006639311 0.08315266756529613
0.000399999999999067768 0.19398847950275744 0.000399999999999067768 0.17725169216746064
0.000600000000019917934 0.27701671559737001 0.000600000000019917934 0.24332876815879231
0.000799999999998135536 0.35488707163543304 0.000799999999998135536 0.30465245768522398
0.001007140329448930061 0.43129550509784131 0.001007140329448930061 0.36405275106537827
0.001267914553963578328 0.52253782117520275 0.001267914553963578328 0.43373824766924846
0.001596209851982166583 0.63103674417469313 0.001596209851982166583 0.51456861923322528
0.002009509145210586212 0.75950153791242214 0.002009509145210586212 0.60782199328894004
0.002529822128153114136 0.91094333499432634 0.002529822128153114136 0.71484445659606710
0.003184857364431081805 1.08869102021567987 0.003184857364431081805 0.83705572376989468
0.004009497869020606231 1.29640913523418333 0.004009497869020606231 0.97596200473585670
0.005047658755856332391 1.53811963819883535 0.005047658755856332391 1.13317699355971957
0.006354625877790454069 1.81822940448707837 0.006354625877790454069 1.31045010595036948
0.007999999999995566213 2.14156489226944302 0.007999999999995566213 1.50969981435878409
0.010071403294347192059 2.51341485673006027 0.010071403294347192059 1.73305325723307901
0.012679145539706837553 2.93958306235040601 0.012679145539706837553 1.98290293623029457
0.015962098519764822413 3.42645683323517769 0.015962098519764822413 2.26199435225896339
0.020095091452077440408 3.98109973462343447 0.020095091452077440408 2.57352703488172851
0.025298221281346400247 4.61136609733896741 0.025298221281346400247 2.92117674175926423
0.031848573644282396344 5.32600315021285109 0.031848573644282396344 3.30888502504422544
0.040094978690177640601 6.13466758848589500 0.040094978690177640601 3.74030632004827313
0.050476587558421215363 7.04777171904994759 0.050476587558421215363 4.21797407951785619
0.063546258777947173257 8.07611432015118069 0.063546258777947173257 4.74251362856601588
0.079999999999998294697 9.23036220124601137 0.079999999999998294697 5.31230194158252544
0.100714032943528764008 10.52052176009256179 0.100714032943528764008 5.92364559139251146
0.126791455396883634421 11.95549913960355859 0.126791455396883634421 6.57175271987866783
0.159620985197506115583 13.54301474046585163 0.159620985197506115583 7.25236189612315485
0.200950914520774404082 15.28990673662703159 0.200950914520774404082 7.96196243051065000
0.252982212813464002465 17.20213877910331135 0.252982212813464002465 8.69945293415351095
0.318485736442795541734 19.28585370878147742 0.318485736442795541734 9.46847527337070005
0.400949786901833249431 21.54843566970465574 0.400949786901833249431 10.27202562561998889
0.504765875584169521062 23.99706618420956517 0.504765875584169521062 11.11883479663156393
0.635462587779429100010 26.64267542817744072 0.635462587779429100010 12.01890832686297728
0.800000000000011368684 29.49641427795482684 0.800000000000011368684 12.98621997689700969
1.007140329435344483500 32.57475478141159186 1.007140329435344483500 14.03522410264855935
1.267914553968893187630 35.89429980302848833 1.267914553968893187630 15.17602224001729461
1.596209851975103788391 39.47453879947565980 1.596209851975103788391 16.41624918520124154
2.009509145207672986544 43.33342091625597448 2.009509145207672986544 17.74733063819610379
2.529822128134725289783 47.48373298108575113 2.529822128134725289783 19.14423174834832153
3.184857364427998049905 51.92852808415103993 3.184857364427998049905 20.56403920826005560
4.009497869018190385759 56.65691400068244121 4.009497869018190385759 21.95007449472479166
5.009497869018204596614 61.47333639919079218 5.009497869018204596614 23.19886642847912839
6.009497869018190385759 65.55920938326558201 6.009497869018190385759 24.11607092388046780
7.009497869018190385759 69.09735704765392938 7.009497869018190385759 24.78946410746152651
8.009497869018204596614 72.20577054924139304 8.009497869018204596614 25.27544037266268262
9.009497869018190385759 74.96735588319276644 9.009497869018190385759 25.61167560644329910
10.009497869018190385759 77.44380268195514816 10.009497869018190385759 25.82977843294523623
11.009497869018204596614 79.68048800460779546 11.009497869018204596614 25.98420855604995694
12.009497869018190385759 81.71308052329943905 12.009497869018190385759 26.06503200919641472
13.009497869018190385759 83.56970639218397423 13.009497869018190385759 26.08641271495569569
14.009497869018204596614 85.27312654886027588 14.009497869018204596614 26.05883050007858159
15.009497869018190385759 86.84207074222109668 15.009497869018190385759 25.98358089270882942
16.009497869018190385759 88.29220524714102680 16.009497869018190385759 25.86344144999581118
17.009497869018190385759 89.63515778363409936 17.009497869018190385759 25.68038811874566818
18.009497869018204596614 90.88156283992783813 18.009497869018204596614 25.46857091757706471
19.009497869018190385759 92.04024844545052986 19.009497869018190385759 25.19026953265039737
20.009497869018190385759 93.11844819249220961 20.009497869018190385759 24.91638831492509709
21.009497869018204596614 94.12257162669826016 21.009497869018204596614 24.62398947908915758
22.009497869018190385759 95.05969206585160691 22.009497869018190385759 24.31750340834491197
23.009497869018190385759 95.93709219648549436 23.009497869018190385759 23.98938465094583350
24.009497869018204596614 96.75966428049825652 24.009497869018204596614 23.66028170019171029
25.009497869018190385759 97.53183462174200713 25.009497869018190385759 23.31337534375922260
26.009497869018190385759 98.25761377884904846 26.009497869018190385759 22.91445464940858656
27.009497869018204596614 98.94027954147001935 27.009497869018204596614 22.50666190678240497
28.009497869018190385759 99.58077694441195149 28.009497869018190385759 22.08233632311037908
29.009497869018190385759 100.18071639959565289 29.009497869018190385759 21.65234418330307165
30.009497869018190385759 100.74328310483934956 30.009497869018190385759 21.22144171990947115
31.009497869018190385759 101.26982043494560060 31.009497869018190385759 20.77884239625671725
32.009497869018190385759 101.76491300082658142 32.009497869018190385759 20.33444060578544921
33.009497869018190385759 102.23223893278483843 33.009497869018190385759 19.89748609931838175
34.009497869018190385759 102.67363853190119016 34.009497869018190385759 19.45689911360621238
35.009497869018190385759 103.09028120809092854 35.009497869018190385759 18.99863660171227764
36.009497869018190385759 103.48374652696384146 36.009497869018190385759 18.57223498677511131
37.009497869018190385759 103.85494910337040153 37.009497869018190385759 18.14877040044986956
38.009497869018190385759 104.20473647053167099 38.009497869018190385759 17.72160870479192596
39.009497869018190385759 104.53388690474537270 39.009497869018190385759 17.28578337884825800
40.009497869018190385759 104.84429697008606297 40.009497869018190385759 16.83274349227566447
41.009497869018190385759 105.13716882556829546 41.009497869018190385759 16.41403844235099285
42.009497869018190385759 105.41360205318086685 42.009497869018190385759 15.98457319968415646
43.009497869018190385759 105.67467045245481927 43.009497869018190385759 15.56930557802077075
44.009497869018190385759 105.92132435348227659 44.009497869018190385759 15.15082077739321775
46.009497869018190385759 106.37476657532175750 46.009497869018190385759 14.34357291137827417
48.009497869018190385759 106.78005232004257152 48.009497869018190385759 13.57193915271548157
50.009497869018218807469 107.14238963262495474 50.009497869018218807469 12.82491439948368139
52.009497869018190385759 107.46676560604728934 52.009497869018190385759 12.10633015191834261
54.009497869018190385759 107.75727088602606329 54.009497869018190385759 11.42199454941460068
56.009497869018190385759 108.01769084002464183 56.009497869018190385759 10.76601972015939879
58.009497869018190385759 108.25121780089709489 58.009497869018190385759 10.14121521018763694
60.009497869018190385759 108.46087097563521695 60.009497869018190385759 9.54679461568647092
62.009497869018190385759 108.64907282959994461 62.009497869018190385759 8.98048191860641509
64.009497869018190385759 108.81830877847468741 64.009497869018190385759 8.44215582578564749
66.009497869018218807469 108.97043587101052253 66.009497869018218807469 7.93675096582901762
68.009497869018190385759 109.10728837605522301 68.009497869018190385759 7.45898037242607881
70.009497869018190385759 109.23048058236132363 70.009497869018190385759 7.00072989498837739
72.009497869018190385759 109.34133483513443252 72.009497869018190385759 6.57427885406465951
74.009497869018218807469 109.44121808279253116 74.009497869018218807469 6.16791948862712403
76.009497869018190385759 109.53124566319472422 76.009497869018190385759 5.78364541675902011
78.009497869018190385759 109.61240238418356796 78.009497869018190385759 5.41959081072343896
80.009497869018218807469 109.68560399196533695 80.009497869018218807469 5.07789420590400642
82.009497869018190385759 109.75161596613288850 82.009497869018190385759 4.75328837758846756
84.009497869018190385759 109.81112505187736872 84.009497869018190385759 4.43673160287104285
86.009497869018218807469 109.86482972170738037 86.009497869018218807469 4.14686561255081987
88.009497869018190385759 109.91329594245395640 88.009497869018190385759 3.86434010955644958
91.009497869018190385759 109.97726925220410976 91.009497869018190385759 3.47345740635824773
94.009497869018190385759 110.03218373188933299 94.009497869018190385759 3.10988577991024151
97.009497869018190385759 110.07920651951484103 97.009497869018190385759 2.78138804001919437
99.504748934509137825444 110.11313621141545127 99.504748934509137825444 2.36387292891808398
nan nan nan nan

