Time Pressure difference Time.1 Pressure.1 difference.1
(hr) (psi) (hr) (psi)
0.000200000000006639311 0.64819760320462294 0.000200000000006639311 0.51956465438450128
0.000399999999999067768 1.21210251286622284 0.000399999999999067768 1.10752567387856282
0.000600000000019917934 1.73088967933658688 0.000600000000019917934 1.52039653124721919
0.000799999999998135536 2.21744874961468552 0.000799999999998135536 1.90356669869089634
0.001007140329448930061 2.69487325668516942 0.001007140329448930061 2.27471886739508156
0.001267914553963578328 3.26498464103431996 0.001267914553963578328 2.71013629919510324
0.001596209851982166583 3.94292086460831737 0.001596209851982166583 3.21519050004115936
0.002009509145210586212 4.74561028051318790 0.002009509145210586212 3.79786762249666632
0.002529822128153114136 5.69186741530011986 0.002529822128153114136 4.46657845027475453
0.003184857364431081805 6.80249221356240241 0.003184857364431081805 5.23019381764947600
0.004009497869020606231 8.10038191210083625 0.004009497869020606231 6.09812500945692992
0.005047658755856332391 9.61066700109473615 0.005047658755856332391 7.08045490606777772
0.006354625877790454069 11.36088305756691241 0.006354625877790454069 8.18811442040130189
0.007999999999995566213 13.38118734699900081 0.007999999999995566213 9.43309078636260523
0.010071403294347192059 15.70462571554151943 0.010071403294347192059 10.82867505022816523
0.012679145539706837553 18.36746195334381326 0.012679145539706837553 12.38981633308996066
0.015962098519764822413 21.40960611907349076 0.015962098519764822413 14.13366940908117364
0.020095091452077440408 24.87519364385515175 0.020095091452077440408 16.08022596963012774
0.025298221281346400247 28.81330091693005713 0.025298221281346400247 18.25245333273741721
0.031848573644282396344 33.27858344193399631 0.031848573644282396344 20.67497958601459018
0.040094978690177640601 38.33137936161320880 0.040094978690177640601 23.37063881855666025
0.050476587558421215363 44.03674812372819503 0.050476587558421215363 26.35526085926928985
0.063546258777947173257 50.46216397356207750 0.063546258777947173257 29.63275294090577461
0.079999999999998294697 57.67427657288615706 0.079999999999998294697 33.19297387659953813
0.100714032943528764008 65.73560911843070187 0.100714032943528764008 37.01284594353307256
0.126791455396883634421 74.70181006020746395 0.126791455396883634421 41.06242806850362115
0.159620985197506115583 84.62111894881682872 0.159620985197506115583 45.31509345832655811
0.200950914520774404082 95.53626289798499727 0.200950914520774404082 49.74890619332493458
0.252982212813464002465 107.48450472043745663 0.252982212813464002465 54.35698444091892156
0.318485736442795541734 120.50422686493661217 0.318485736442795541734 59.16208375508806938
0.400949786901833249431 134.64156784224854846 0.400949786901833249431 64.18292521780006155
0.504765875584169521062 149.94140011744366348 0.504765875584169521062 69.47406171586567325
0.635462587779429100010 166.47201895055835053 0.635462587779429100010 75.09801108932504121
0.800000000000011368684 184.30309860923452447 0.800000000000011368684 81.14208589591352450
1.007140329435344483500 203.53756175499458436 1.007140329435344483500 87.69660160782420633
1.267914553968893187630 224.27914843368805009 1.267914553968893187630 94.82467587554428690
1.596209851975103788391 246.64963504907268543 1.596209851975103788391 102.57401336525072111
2.009509145207672986544 270.76117364452562697 2.009509145207672986544 110.89103908832598222
2.529822128134725289783 296.69366043886469697 2.529822128134725289783 119.61932723296835945
3.184857364427998049905 324.46617212311826961 3.184857364427998049905 128.49074163013497696
4.009497869018190385759 354.01065056802247000 4.009497869018190385759 137.15113660797840112
5.009497869018204596614 384.10520931306456305 5.009497869018204596614 144.95399090546354159
6.009497869018190385759 409.63505997194806696 6.009497869018190385759 150.68498006800479061
7.009497869018190385759 431.74254638500542569 7.009497869018190385759 154.89255761105155784
8.009497869018204596614 451.16491531103179113 8.009497869018204596614 157.92909387214064054
9.009497869018190385759 468.42019011578838672 9.009497869018190385759 160.02999993019270164
10.009497869018190385759 483.89382749597473321 10.009497869018190385759 161.39277665149003838
11.009497869018204596614 497.86935793483121415 11.009497869018204596614 162.35770580994972079
12.009497869018190385759 510.56965078652200418 12.009497869018190385759 162.86271678229437043
13.009497869018190385759 522.17044732297506471 13.009497869018190385759 162.99631031962249494
14.009497869018204596614 532.81396521469071104 14.009497869018204596614 162.82396775552456347
15.009497869018190385759 542.61723396649551887 15.009497869018190385759 162.35378396719409011
16.009497869018190385759 551.67814151065977057 16.009497869018190385759 161.60311402648389389
17.009497869018190385759 560.06934158767342069 17.009497869018190385759 160.45933784263232269
18.009497869018204596614 567.85728190585780339 18.009497869018204596614 159.13583573331709431
19.009497869018190385759 575.09712283700969238 19.009497869018190385759 157.39691902615786034
20.009497869018190385759 581.83406219604194121 20.009497869018190385759 155.68562094761921344
21.009497869018204596614 588.10814888896697994 21.009497869018204596614 153.85861882571813908
22.009497869018190385759 593.96357928394513692 22.009497869018190385759 151.94359512194034778
23.009497869018190385759 599.44585795253692595 23.009497869018190385759 149.89340342302398312
24.009497869018204596614 604.58555332311323127 24.009497869018204596614 147.83706216696970159
25.009497869018190385759 609.41032236806574929 25.009497869018190385759 145.66947949691166286
26.009497869018190385759 613.94522434972111569 26.009497869018190385759 143.17689448724425461
27.009497869018204596614 618.21073995374899823 27.009497869018204596614 140.62887406184174210
28.009497869018190385759 622.21277406206399974 28.009497869018190385759 137.97755111956888641
29.009497869018190385759 625.96138904713791362 29.009497869018190385759 135.29082170909504157
30.009497869018190385759 629.47648705104325018 30.009497869018190385759 132.59840430359540164
31.009497869018190385759 632.76646191231111516 31.009497869018190385759 129.83290114708057672
32.009497869018190385759 635.85995975684261339 32.009497869018190385759 127.05613559722318939
33.009497869018190385759 638.77996272766893071 33.009497869018190385759 124.32590307694907494
34.009497869018190385759 641.53796961879197625 34.009497869018190385759 121.57297365615694673
35.009497869018190385759 644.14128728008495273 35.009497869018190385759 118.70960185365187556
36.009497869018190385759 646.59978534633103209 36.009497869018190385759 116.04530719924584048
37.009497869018190385759 648.91917862575735398 37.009497869018190385759 113.39936404576394580
38.009497869018190385759 651.10476277895952535 38.009497869018190385759 110.73032016215626072
39.009497869018190385759 653.16140072696600782 39.009497869018190385759 108.00714312555523122
40.009497869018190385759 655.10094281308806785 40.009497869018190385759 105.17640396851437856
41.009497869018190385759 656.93090051412127650 41.009497869018190385759 102.56019993173674720
42.009497869018190385759 658.65814437255960456 42.009497869018190385759 99.87676274433522394
43.009497869018190385759 660.28938383379477273 43.009497869018190385759 97.28203686669353090
44.009497869018190385759 661.83055686638931547 44.009497869018190385759 94.66720901847708092
46.009497869018190385759 664.66380994378903324 46.009497869018190385759 89.62326429861190036
48.009497869018190385759 667.19616583865524717 48.009497869018190385759 84.80184799448397825
50.009497869018218807469 669.46016609378420981 50.009497869018218807469 80.13419668402219997
52.009497869018190385759 671.48697167268471730 52.009497869018190385759 75.64425081500655779
54.009497869018190385759 673.30214224758572072 54.009497869018190385759 71.36830151345631634
56.009497869018190385759 674.92933001384528779 56.009497869018190385759 67.26955945951947058
58.009497869018190385759 676.38848169553818934 58.009497869018190385759 63.36557960191066741
60.009497869018190385759 677.69846227057973920 60.009497869018190385759 59.65144823626915382
62.009497869018190385759 678.87440808293649752 62.009497869018190385759 56.11294406860787376
64.009497869018190385759 679.93184881046931878 64.009497869018190385759 52.74930922017743029
66.009497869018218807469 680.88238789201875534 66.009497869018218807469 49.59137684017996861
68.009497869018190385759 681.73748643025112415 68.009497869018190385759 46.60611225992402495
70.009497869018190385759 682.50723102133144948 70.009497869018190385759 43.74281565257838622
72.009497869018190385759 683.19988410409496282 72.009497869018190385759 41.07821216868589431
74.009497869018218807469 683.82398681261634010 74.009497869018218807469 38.53914794571712576
76.009497869018190385759 684.38650813714286869 76.009497869018190385759 36.13807975169562781
78.009497869018190385759 684.89360147432819304 78.009497869018190385759 33.86334929384914005
80.009497869018218807469 685.35098870147464822 80.009497869018218807469 31.72831883017872201
82.009497869018190385759 685.76345278167593733 82.009497869018190385759 29.70007704385814407
84.009497869018190385759 686.13528472011955728 84.009497869018190385759 27.72212833740228888
86.009497869018218807469 686.47084879805072433 86.009497869018218807469 25.91095225023364534
88.009497869018190385759 686.77368135855465425 88.009497869018190385759 24.14564189259768412
91.009497869018190385759 687.17340720672495991 91.009497869018190385759 21.70328084107066147
94.009497869018190385759 687.51653056636894235 94.009497869018190385759 19.43156819527808565
97.009497869018190385759 687.81034409173366839 97.009497869018190385759 17.37900849166355854
99.504748934509137825444 688.02234773709915316 99.504748934509137825444 14.77023957599151771
nan nan nan nan

